 $NMID ID='MM_0lb_SNR400_12hz_g55_49.RAW', FMTDAT='(8E13.5)'
 TRAMP=1., VOLUME=1. $END
  3.10235E+05  5.49452E+02  3.37301E+05  2.50504E+05  8.48171E+04  3.38976E+05 -1.32663E+05  2.51561E+05
 -1.90921E+05  8.32515E+04 -1.11524E+05 -3.27515E+04 -2.69045E+02 -5.04132E+04  5.35225E+04 -4.21080E+02
  3.50925E+04  5.26916E+04 -1.63339E+04  7.58400E+04 -6.09649E+04  6.38792E+04 -8.45320E+04  3.26226E+04
 -8.21610E+04 -1.22928E+04 -5.73517E+04 -5.20705E+04 -1.50719E+04 -7.00302E+04  2.75328E+04 -4.66325E+04
  4.15240E+04  2.55558E+03  1.71245E+04  4.79716E+04 -3.45667E+04  4.79246E+04 -6.78221E+04  6.99129E+02
 -5.38986E+04 -5.72967E+04 -7.16181E+03 -7.82717E+04  3.39757E+04 -5.61197E+04  4.92199E+04 -1.82074E+04
  4.51455E+04  1.12980E+04  3.27726E+04  2.56332E+04  1.57608E+04  3.05651E+04 -4.96469E+03  2.77648E+04
 -2.19247E+04  1.17392E+04 -1.84778E+04 -4.88046E+03  6.97508E+03 -6.92809E+03  2.26405E+04  1.36567E+04
  7.16223E+03  3.66880E+04 -3.30800E+04  3.64578E+04 -6.49755E+04  1.33212E+03 -5.85354E+04 -4.39592E+04
 -1.20178E+04 -6.44975E+04  4.12588E+04 -4.71372E+04  5.95775E+04 -1.71580E+03  3.55320E+04  3.33185E+04
 -5.60375E+03  3.80574E+04 -3.03854E+04  1.74444E+04 -3.22940E+04 -3.63280E+03 -1.83669E+04 -1.17131E+04
 -8.79302E+03 -1.44308E+04 -3.05162E+02 -1.89672E+04  7.52005E+03 -2.35380E+04  1.63164E+04 -1.28896E+04
  1.15876E+04  6.09462E+03 -9.34720E+03  1.30872E+04 -2.24225E+04 -5.57420E+03 -8.74047E+03 -3.56270E+04
  2.42942E+04 -4.50372E+04  5.06700E+04 -1.97108E+04  4.61367E+04  2.02136E+04  1.65189E+04  4.57703E+04
 -1.61354E+04  3.50359E+04 -2.63983E+04  2.39166E+03 -1.09621E+04 -2.87512E+04  2.16722E+04 -3.53628E+04
  4.30353E+04 -1.04922E+04  3.78455E+04  2.46427E+04  1.99227E+04  4.89525E+04 -7.75899E+03  5.29291E+04
 -3.33841E+04  3.56499E+04 -4.59423E+04  1.00533E+04 -4.54997E+04 -1.74194E+04 -2.47872E+04 -3.97386E+04
  7.78934E+03 -3.99021E+04  3.29539E+04 -1.59736E+04  3.06365E+04  1.08564E+04  4.91083E+03  1.94576E+04
 -1.33759E+04  9.10711E+03 -1.08744E+04 -7.26941E+03  5.94133E+03 -1.07783E+04  1.82371E+04  5.31307E+03
  1.40931E+04  2.23485E+04 -5.79005E+03  2.63282E+04 -2.25776E+04  1.26770E+04 -2.98985E+04 -3.45087E+03
 -2.24388E+04 -1.81173E+04 -1.01768E+04 -2.29301E+04  3.84367E+03 -2.27280E+04  1.79874E+04 -1.98285E+04
  2.94102E+04 -1.45380E+04  3.57900E+04  3.18595E+03  2.47265E+04  2.20915E+04  4.31599E+03  3.88719E+04
 -1.91755E+04  3.21582E+04 -2.97931E+04  1.09656E+04 -2.14973E+04 -1.02054E+04 -4.58477E+03 -1.42800E+04
  1.56129E+03 -1.99842E+03 -6.43666E+03  7.38704E+03 -1.86021E+04  5.61850E+03 -1.76398E+04 -8.16224E+03
 -1.12518E+04 -2.08523E+04  5.42036E+03 -2.56683E+04  1.70486E+04 -1.86080E+04  2.00791E+04 -1.36738E+03
  1.29374E+04  1.50736E+04 -4.32997E+02  2.16321E+04 -1.56877E+04  1.22138E+04 -2.14583E+04 -4.29542E+03
 -1.62294E+04 -1.88453E+04 -1.96292E+03 -2.59664E+04  1.11991E+04 -2.21420E+04  2.20146E+04 -1.01319E+04
  2.00685E+04 -2.25777E+02  1.44769E+04  4.34342E+03  7.12040E+03  1.96027E+03  9.97706E+03 -1.37759E+03
  1.97168E+04  2.89599E+03  2.28975E+04  1.64108E+04  1.48203E+04  3.41502E+04 -2.78909E+03  3.90799E+04
 -2.28387E+04  3.25416E+04 -3.71973E+04  1.62865E+04 -3.92718E+04 -2.38726E+03 -3.21393E+04 -2.22980E+04
 -1.23555E+04 -3.21435E+04  1.11928E+04 -2.88821E+04  2.50077E+04 -1.38810E+04  2.17361E+04  7.11338E+03
  8.27492E+03  1.67059E+04 -1.05908E+04  1.45160E+04 -1.86976E+04  1.96950E+03 -1.37868E+04 -1.13979E+04
 -7.77311E+02 -1.76794E+04  9.47379E+03 -1.26670E+04  1.14685E+04 -1.37463E+03  2.99166E+03  8.05315E+03
 -7.36481E+03  3.14430E+03 -8.04731E+03 -6.50614E+03 -1.31000E+03 -1.59079E+04  1.04684E+04 -1.73222E+04
  1.96669E+04 -9.24332E+03  2.15251E+04  3.93374E+03  1.89328E+04  1.60253E+04  8.60872E+03  2.45062E+04
 -4.78456E+03  2.66085E+04 -1.67204E+04  1.58776E+04 -1.93279E+04  3.17934E+03 -1.32495E+04 -4.82269E+03
 -5.53293E+03 -5.91246E+03 -6.62586E+02  2.79150E+02 -2.49027E+03  3.10029E+03 -6.36082E+03  5.05230E+03
 -1.23793E+04 -3.07097E+02 -1.26335E+04 -1.05749E+04 -6.01662E+03 -1.71817E+04  5.51851E+03 -1.24119E+04
  1.13149E+04 -5.44763E+03  8.06528E+03  3.53256E+03 -6.57736E+02  5.52306E+03 -6.25527E+03 -3.51856E+02
 -6.47639E+03 -9.34196E+03 -4.87168E+02 -1.23280E+04  8.03718E+03 -1.35015E+04  1.66572E+04 -7.07011E+03
  1.91334E+04  2.08260E+03  1.43968E+04  1.12106E+04  2.78841E+03  1.55789E+04 -8.02290E+03  1.33507E+04
 -1.07848E+04  3.86552E+03 -5.78344E+03 -2.50296E+03  1.88097E+03 -3.22620E+03  6.10534E+03 -9.11533E+02
  6.70481E+03  6.28959E+03  6.96965E+02  1.05003E+04 -7.57697E+03  1.03205E+04 -1.35761E+04  2.55391E+03
 -8.93482E+03 -6.76970E+03 -4.15956E+02 -1.15044E+04  7.65401E+03 -5.50788E+03  7.11753E+03  2.50437E+03
  1.88834E+03  7.39779E+03 -7.10693E+03  8.80795E+03 -9.86816E+03  3.87602E+03 -1.05807E+04 -3.63383E+03
 -5.70274E+03 -1.27213E+04  3.14939E+03 -1.45315E+04  1.20520E+04 -8.66147E+03  1.35219E+04  1.77631E+03
  8.33409E+03  1.05606E+04 -1.08317E+03  1.34287E+04 -8.93439E+03  7.11608E+03 -1.01668E+04 -9.58798E+02
 -8.53895E+03 -8.38499E+03 -1.95271E+03 -9.53972E+03  5.05790E+03 -7.34199E+03  6.24552E+03 -3.13514E+03
  3.89420E+03  1.47067E+03 -7.81628E+02  2.27371E+03  4.32977E+02 -2.02413E+03  1.52776E+03 -5.62076E+03
  8.69389E+03 -3.54036E+03  1.21229E+04  9.21965E+02  1.22140E+04  8.60721E+03  8.79488E+03  1.59311E+04
 -3.43173E+03  1.82503E+04 -1.58784E+04  1.34664E+04 -1.99041E+04  3.27948E+03 -1.66416E+04 -7.30470E+03
 -7.72417E+03 -1.38086E+04 -1.00904E+03 -1.15547E+04  4.25510E+03 -5.59439E+03  2.82013E+03 -4.08414E+03
  2.62391E+03 -2.73973E+03  3.83540E+03 -2.93195E+03  5.31081E+03 -3.16056E+03  6.98711E+03 -9.74546E+02
  8.26012E+03  2.07218E+03  3.92939E+03  7.58108E+03 -1.28257E+03  8.48741E+03 -8.21748E+03  6.58919E+03
 -1.14703E+04 -1.26530E+03 -6.86540E+03 -7.66630E+03 -1.37580E+02 -1.16201E+04  6.75065E+03 -1.17181E+04
  1.26189E+04 -7.04212E+03  1.44565E+04  2.03845E+03  1.01336E+04  1.02290E+04  1.61904E+03  1.30317E+04
 -5.46951E+03  1.11596E+04 -7.37013E+03  4.07886E+03 -5.02577E+03 -1.07926E+03 -1.95469E+03 -1.14812E+03
 -9.61469E+02  4.79164E+02 -1.23600E+03  2.94427E+03 -4.56895E+03  1.89215E+03 -7.85403E+03 -1.52485E+03
 -5.13974E+03 -7.76600E+03  5.60308E+02 -1.08967E+04  6.94561E+03 -9.60714E+03  1.00859E+04 -3.04727E+03
  1.05965E+04  5.75135E+03  5.00172E+03  9.57113E+03 -2.48036E+03  1.14192E+04 -7.44829E+03  6.75288E+03
 -1.02075E+04  7.22976E+02 -7.61935E+03 -6.54980E+03 -7.02811E+02 -9.16342E+03  4.58135E+03 -6.61369E+03
  6.33482E+03 -2.07824E+03  4.56697E+03  1.32559E+03  1.40517E+03  2.66974E+03  8.66771E+02  1.74889E+03
  2.70334E+03  1.08836E+03  2.74543E+03  1.14619E+03  3.60806E+03  3.95789E+03  2.51692E+03  5.09397E+03
 -1.78911E+03  8.55923E+03 -7.21198E+03  8.63123E+03 -1.06253E+04  1.65679E+03 -1.10640E+04 -3.87469E+03
 -4.58098E+03 -1.07038E+04  1.12291E+03 -1.18673E+04  6.34717E+03 -7.47932E+03  8.60938E+03 -1.92345E+03
  7.16159E+03  4.21559E+03  1.64057E+03  5.71521E+03 -2.84890E+03  4.23168E+03 -4.64844E+03 -1.05887E+03
 -2.11201E+03 -4.79729E+03  2.81077E+03 -4.06167E+03  3.99202E+03 -2.46775E+03  3.95753E+03  9.63844E+02
  2.30170E+03  2.01026E+03  1.70078E+03  8.95735E+02 -7.56242E+02  1.20309E+03  1.59683E+03 -1.13174E+03
  1.23101E+03 -7.77612E+02  5.02221E+03  1.79597E+03  2.07086E+03  6.43444E+03 -1.66642E+03  7.74995E+03
 -5.02701E+03  5.33467E+03 -6.24320E+03  1.41179E+03 -6.21697E+03 -2.96778E+03 -2.55319E+03 -3.47791E+03
  6.82741E+02 -4.21271E+03  2.45003E+03 -1.92338E+03  2.40740E+03  2.03286E+03 -1.14200E+03  3.04618E+03
 -4.24455E+03  2.37883E+03 -4.80498E+03 -2.53219E+03 -2.71575E+03 -5.96308E+03  6.60753E+02 -5.58135E+03
  2.87022E+03 -2.95003E+03  3.80101E+03 -3.75576E+01  3.68942E+03  1.57986E+03  1.12604E+03  2.73600E+03
 -2.08532E+03  7.25528E+02 -2.18762E+03 -1.79371E+03  7.82987E+02 -3.97263E+03  5.02332E+03 -4.00871E+03
  6.06772E+03  9.28529E+02  6.56863E+03  4.46239E+03  2.38565E+03  6.33165E+03 -1.67594E+03  5.50472E+03
 -5.02880E+03  2.89745E+03 -5.17196E+03 -6.57718E+02 -3.24104E+03 -4.32447E+03  9.93513E+02 -4.06219E+03
  3.67694E+03 -2.01511E+03  2.77364E+03  1.80699E+03  2.13086E+03  3.68344E+03 -4.19613E+02  3.65934E+03
 -1.52975E+03  1.98346E+03 -2.01118E+03  5.34188E+02 -1.70190E+02  6.16899E+01 -1.48514E+03  1.19213E+03
 -1.92053E+03  2.77573E+03 -4.20768E+03  1.52769E+03 -6.10258E+03  2.68438E+02 -6.90347E+03 -3.67847E+03
 -4.29498E+03 -8.72120E+03  1.94944E+03 -9.16317E+03  5.71380E+03 -7.91718E+03  8.74005E+03 -3.15440E+03
  8.57935E+03  2.02057E+03  4.81224E+03  6.33688E+03  6.67236E+02  5.79882E+03 -2.66986E+03  4.78230E+03
 -3.88782E+03  1.77763E+03 -1.74644E+03 -1.56751E+03 -1.32668E+03  1.44795E+02 -7.73503E+02  2.19534E+02
 -1.53725E+03 -1.73595E+01 -1.90386E+03  3.54582E+02 -4.78165E+02 -1.40245E+03  5.14874E+02 -2.25110E+03
  3.15364E+03 -1.63902E+03  3.50611E+03 -4.46094E+01  3.78361E+03  3.54641E+03  4.94637E+02  5.73192E+03
 -2.61623E+03  6.92167E+03 -6.63103E+03  4.35440E+03 -7.55574E+03 -7.30309E+02 -5.42563E+03 -4.64558E+03
 -2.04367E+03 -6.45598E+03  1.01385E+03 -6.31840E+03  3.58984E+03 -2.96701E+03  3.56352E+03 -8.39726E+01
  2.07437E+03  2.39150E+03 -3.41846E+02  1.55306E+03 -9.97203E+02 -4.12196E+02  2.22911E+02 -1.01319E+03
  2.25448E+03 -1.73273E+02  2.22127E+03  7.99073E+02  1.20216E+03  2.89092E+03  3.43058E+02  3.06156E+03
 -3.34676E+03  2.53583E+03 -3.91747E+03  2.86675E+02 -3.40207E+03 -2.68796E+03 -1.56367E+02 -5.24760E+03
  2.76029E+03 -3.79135E+03  3.92444E+03 -9.47946E+02  4.39554E+03 -2.27817E+02  1.59520E+03  3.21371E+03
  3.24340E+02  3.48863E+03 -1.51815E+03  2.98980E+03 -2.21084E+03  1.71717E+03 -2.33701E+03  1.45485E+02
 -3.42967E+02 -2.45763E+02 -1.44973E+03  4.34273E+02 -2.55935E+03  4.95517E+02 -2.70623E+03 -5.17039E+01
 -3.71017E+03 -2.03710E+03 -1.28011E+03 -4.42348E+03  2.23686E+03 -4.83054E+03  3.33422E+03 -2.31396E+03
  3.84696E+03  1.42638E+02  2.53036E+03  2.99548E+03 -7.49983E+02  3.33274E+03 -2.93670E+03  2.14701E+03
