 $NMID ID='MM_0lb_SNR400_16hz_g50_99.RAW', FMTDAT='(8E13.5)'
 TRAMP=1., VOLUME=1. $END
  3.09676E+05  1.19942E+02  3.37475E+05  2.50814E+05  8.46030E+04  3.37455E+05 -1.31987E+05  2.51029E+05
 -1.90173E+05  8.33046E+04 -1.11362E+05 -3.30125E+04  1.79149E+03 -5.06649E+04  5.37314E+04 -8.11037E+01
  3.50984E+04  5.34307E+04 -1.66745E+04  7.59623E+04 -6.07839E+04  6.34500E+04 -8.37070E+04  3.21205E+04
 -8.03435E+04 -1.16428E+04 -5.69864E+04 -5.12841E+04 -1.47352E+04 -6.91812E+04  2.74410E+04 -4.57491E+04
  3.94987E+04  3.77369E+03  1.59124E+04  4.70497E+04 -3.43948E+04  4.69630E+04 -6.58164E+04 -3.48165E+02
 -5.34784E+04 -5.68124E+04 -6.12595E+03 -7.68303E+04  3.34191E+04 -5.44255E+04  4.77734E+04 -1.68263E+04
  4.24115E+04  1.08844E+04  3.15064E+04  2.48686E+04  1.61133E+04  2.85342E+04 -5.00880E+03  2.72526E+04
 -2.21115E+04  1.26582E+04 -1.89529E+04 -4.64963E+03  4.88275E+03 -7.36295E+03  2.20060E+04  1.14647E+04
  7.46866E+03  3.46920E+04 -3.14017E+04  3.47452E+04 -6.28810E+04  2.94214E+03 -5.56342E+04 -4.22230E+04
 -1.25053E+04 -6.19445E+04  3.88218E+04 -4.47797E+04  5.74552E+04 -2.31739E+03  3.35208E+04  3.16116E+04
 -6.35389E+03  3.55628E+04 -2.89321E+04  1.52445E+04 -2.97127E+04 -4.77671E+03 -1.59174E+04 -1.01084E+04
 -8.40496E+03 -1.24954E+04 -1.07110E+03 -1.77489E+04  7.13039E+03 -2.24297E+04  1.54877E+04 -1.37065E+04
  1.22174E+04  4.66659E+03 -7.74027E+03  1.33374E+04 -2.10606E+04 -3.39293E+03 -7.77208E+03 -3.28058E+04
  2.15498E+04 -4.28741E+04  4.72485E+04 -1.91838E+04  4.34015E+04  1.92872E+04  1.49788E+04  4.36839E+04
 -1.61053E+04  3.24958E+04 -2.45674E+04  1.74578E+03 -8.95025E+03 -2.72706E+04  2.08606E+04 -3.25476E+04
  4.03484E+04 -8.30213E+03  3.42869E+04  2.35181E+04  1.73816E+04  4.50341E+04 -7.71154E+03  4.88180E+04
 -3.06487E+04  3.26112E+04 -4.01263E+04  8.75253E+03 -4.13690E+04 -1.58038E+04 -2.28033E+04 -3.68726E+04
  7.27030E+03 -3.65220E+04  3.06624E+04 -1.37725E+04  2.76902E+04  1.11232E+04  3.75121E+03  1.80225E+04
 -1.40688E+04  7.77772E+03 -1.03199E+04 -8.06859E+03  6.11232E+03 -1.06375E+04  1.78808E+04  5.86867E+03
  1.32287E+04  2.21613E+04 -5.95794E+03  2.50151E+04 -2.26318E+04  1.04603E+04 -2.69056E+04 -4.68320E+03
 -1.95449E+04 -1.74017E+04 -7.26797E+03 -1.89483E+04  4.44966E+03 -1.77421E+04  1.45220E+04 -1.67132E+04
  2.40130E+04 -1.21448E+04  3.14360E+04  2.18461E+03  2.26134E+04  1.86858E+04  4.13671E+03  3.51288E+04
 -1.70299E+04  2.90484E+04 -2.75431E+04  1.04653E+04 -1.98269E+04 -1.00095E+04 -4.39281E+03 -1.34028E+04
  2.19077E+03 -3.15403E+03 -4.66678E+03  6.43861E+03 -1.45735E+04  5.61630E+03 -1.51206E+04 -6.59076E+03
 -9.05151E+03 -1.79195E+04  5.04281E+03 -2.14329E+04  1.49873E+04 -1.50146E+04  1.65902E+04 -2.00118E+03
  1.04213E+04  1.21099E+04 -8.71895E+02  1.84355E+04 -1.18304E+04  1.00778E+04 -1.74615E+04 -3.85543E+03
 -1.30476E+04 -1.58484E+04 -1.66083E+03 -2.14691E+04  9.52715E+03 -1.70460E+04  1.77539E+04 -7.51290E+03
  1.62708E+04  4.28204E+02  1.16325E+04  4.56632E+03  6.25159E+03  3.18667E+02  8.64878E+03 -2.12648E+03
  1.63116E+04  2.31909E+03  1.74533E+04  1.38293E+04  1.14493E+04  2.79717E+04 -3.23458E+03  3.10694E+04
 -1.83419E+04  2.43277E+04 -2.82582E+04  1.18020E+04 -2.96379E+04 -2.80506E+03 -2.45008E+04 -1.72358E+04
 -1.13599E+04 -2.44097E+04  7.90190E+03 -2.21229E+04  1.87252E+04 -1.19868E+04  1.79126E+04  4.72515E+03
  6.34696E+03  1.26113E+04 -7.98844E+03  1.16472E+04 -1.54109E+04  2.73299E+03 -1.16242E+04 -9.09651E+03
  2.34160E+02 -1.34873E+04  6.71118E+03 -1.04234E+04  9.17040E+03 -1.59258E+03  1.58886E+03  5.64568E+03
 -6.07787E+03  1.98318E+03 -4.58672E+03 -5.67316E+03  2.74642E+02 -1.23402E+04  8.92991E+03 -1.22883E+04
  1.51526E+04 -5.89077E+03  1.52406E+04  2.99826E+03  1.36025E+04  1.20279E+04  6.01104E+03  1.74209E+04
 -2.68195E+03  1.91935E+04 -1.24097E+04  1.23926E+04 -1.36105E+04  3.23821E+03 -1.02205E+04 -2.04276E+03
 -5.55600E+03 -3.98648E+03 -1.04242E+03  1.12537E+03 -1.87376E+03  2.30481E+03 -4.49608E+03  3.38122E+03
 -9.35982E+03 -5.86051E+02 -1.04362E+04 -7.87950E+03 -3.93361E+03 -1.35082E+04  4.43097E+03 -1.02849E+04
  8.35592E+03 -4.14038E+03  6.17466E+03  2.36344E+03  5.44238E+02  3.50999E+03 -4.95946E+03 -1.23348E+02
 -4.50149E+03 -6.93232E+03 -3.73412E+02 -8.98984E+03  4.75724E+03 -9.97275E+03  1.19837E+04 -4.31855E+03
  1.40563E+04  1.15025E+03  1.07884E+04  7.83862E+03  1.69808E+03  1.07292E+04 -6.22687E+03  1.00877E+04
 -8.63084E+03  2.97535E+03 -4.05845E+03 -1.47787E+03  1.37851E+03 -2.35711E+03  6.09858E+03 -1.23616E+03
  5.06588E+03  4.05043E+03  8.89316E+02  7.80358E+03 -5.47752E+03  7.69255E+03 -9.84309E+03  2.12615E+03
 -7.00866E+03 -5.27493E+03  3.61427E+02 -7.53924E+03  4.54610E+03 -4.27375E+03  4.69121E+03  1.86145E+03
  1.57308E+02  4.01072E+03 -4.78523E+03  6.43364E+03 -7.34726E+03  3.37895E+03 -6.51741E+03 -1.89398E+03
 -3.78256E+03 -7.73399E+03  2.09046E+03 -9.35126E+03  7.55592E+03 -5.93288E+03  8.58973E+03  1.63008E+03
  5.51128E+03  7.08331E+03  1.72029E+02  9.33091E+03 -6.53591E+03  5.35314E+03 -7.08456E+03 -2.52377E+02
 -7.10229E+03 -6.62486E+03 -2.04875E+03 -5.52176E+03  3.34490E+03 -5.69542E+03  4.03521E+03 -3.50785E+03
  3.34166E+03  9.13443E+02 -1.78864E+02  1.24131E+03  7.06486E+02 -1.14966E+03  6.75571E+02 -2.69145E+03
  5.51287E+03 -1.13861E+03  7.28847E+03  1.14104E+03  7.07461E+03  4.36690E+03  5.97772E+03  9.83302E+03
 -2.08913E+03  1.22076E+04 -1.05602E+04  9.17478E+03 -1.32233E+04  2.18969E+03 -1.01539E+04 -3.32166E+03
 -5.44442E+03 -8.22180E+03 -1.72220E+02 -6.86968E+03  3.13608E+03 -3.47355E+03  1.91026E+03 -2.74785E+03
  1.97418E+03 -2.27184E+03  2.60665E+03 -2.71970E+03  3.85835E+03 -2.19564E+03  4.43937E+03  4.76582E+02
  5.24823E+03  1.42068E+03  1.64035E+03  4.90792E+03 -1.76129E+03  4.19348E+03 -5.54098E+03  3.89090E+03
 -6.68442E+03 -5.69518E+02 -2.94212E+03 -4.76284E+03 -8.79549E+00 -6.68474E+03  4.41959E+03 -6.62862E+03
  7.18056E+03 -4.41382E+03  8.98371E+03  4.42699E+02  6.22732E+03  6.16919E+03  1.56178E+03  8.36512E+03
 -3.19183E+03  7.53016E+03 -4.87958E+03  2.14417E+03 -3.00351E+03 -1.20870E+03 -1.32790E+03 -1.06523E+03
 -8.89801E+02  2.69823E+02 -8.21576E+02  1.81482E+03 -3.24856E+03  7.75143E+02 -4.83088E+03 -7.80898E+02
 -2.12952E+03 -5.31432E+03  9.62399E+02 -6.95540E+03  3.60863E+03 -6.07988E+03  5.17625E+03 -1.20019E+03
  6.23246E+03  3.28857E+03  3.08938E+03  5.12017E+03 -1.30350E+03  6.16376E+03 -4.13679E+03  3.89901E+03
 -6.14387E+03  5.63095E+02 -4.75606E+03 -3.10718E+03 -2.45301E+02 -4.09689E+03  2.25999E+03 -3.48704E+03
  3.79472E+03 -1.81014E+03  2.87296E+03  9.20395E+02  9.45326E+01  2.53019E+03  9.73824E+02  9.18541E+02
  2.09019E+03  1.03197E+02  1.39300E+03  1.03922E+03  2.65644E+03  2.73972E+03  1.41804E+03  3.11293E+03
 -1.66201E+03  3.87164E+03 -3.20974E+03  5.24744E+03 -4.73488E+03  8.64435E+02 -6.22825E+03 -1.49488E+03
 -2.61968E+03 -5.37297E+03  9.31957E+02 -6.89637E+03  3.26765E+03 -4.05615E+03  4.26689E+03 -1.24700E+03
  3.49172E+03  2.50940E+03  1.02244E+02  3.16673E+03 -1.60845E+03  2.03643E+03 -2.36578E+03 -4.59774E+02
 -1.14467E+03 -2.22366E+03  1.19583E+03 -2.49491E+03  1.77579E+03 -8.89387E+02  2.01056E+03  1.31764E+03
  1.39606E+03  1.33326E+03  7.94491E+02  2.39839E+02 -6.87927E+02  8.71635E+02  1.02926E+03 -6.50517E+02
  5.57039E+02 -6.89716E+02  2.22582E+03  9.20131E+02  1.04131E+03  3.12626E+03 -7.46242E+02  4.26627E+03
 -2.62973E+03  1.74329E+03 -3.40091E+03 -5.56165E+01 -3.15317E+03 -1.01624E+03 -3.33266E+02 -2.38780E+03
  6.21196E+02 -1.98112E+03  1.50293E+03 -9.34979E+02  1.52419E+03  1.29012E+03 -9.05813E+02  1.59321E+03
 -2.13858E+03  8.92835E+02 -1.90392E+03 -1.96477E+03 -1.32542E+03 -3.13920E+03  5.63950E+02 -2.35135E+03
  1.54162E+03 -1.05394E+03  9.62965E+02  3.28432E+02  2.82799E+03  5.75184E+01  4.55826E+02  1.67492E+03
 -3.20044E+02  1.94288E+02 -1.17899E+03 -2.93323E+02  6.44376E+02 -2.10317E+03  2.52345E+03 -1.55363E+03
  2.22504E+03 -4.43526E+01  3.93863E+03  1.92338E+03  1.09407E+03  3.07927E+03 -1.43386E+03  2.97883E+03
 -1.75679E+03  9.33839E+02 -2.74436E+03  1.33115E+02 -1.20896E+03 -2.25881E+03 -9.49493E+01 -1.43283E+03
  2.19447E+03 -1.02015E+03  1.34535E+03  1.56957E+03  4.95782E+02  2.15248E+03  1.02974E+02  2.20853E+03
 -6.47460E+02  1.21029E+03 -6.25695E+02  4.54578E+02  1.89027E+02  5.86760E+01 -7.57222E+02  3.11941E+02
 -1.00105E+03  1.81513E+03 -2.18330E+03  1.40331E+03 -2.69684E+03  2.74010E+02 -3.76207E+03 -1.70432E+03
 -1.76178E+03 -4.32326E+03  1.12157E+03 -4.63620E+03  1.67216E+03 -3.29945E+03  4.45998E+03 -1.31062E+03
  3.65664E+03  7.81076E+02  1.96391E+03  2.91154E+03 -2.10487E+02  2.72625E+03 -1.10108E+03  2.59382E+03
 -1.31628E+03  6.66050E+02 -8.04267E+02 -1.59067E+02 -5.66035E+02  4.79586E+02 -5.75572E+02  3.87942E+02
 -1.42899E+03 -5.15280E+01 -1.47180E+03 -4.60662E+02  2.74215E+02 -1.45189E+03 -3.02417E+02 -1.35275E+03
  2.04701E+03 -7.58125E+02  1.15594E+03  5.22237E+02  2.23242E+03  1.73928E+03 -4.30234E+02  2.36636E+03
 -1.36714E+03  3.53894E+03 -2.14014E+03  1.62024E+03 -2.94629E+03 -5.33568E+02 -2.19890E+03 -2.69204E+03
 -1.57371E+03 -2.41945E+03  5.57505E+02 -1.95964E+03  1.73834E+03 -7.02067E+02  1.27654E+03  1.18659E+02
  7.25982E+02  2.82336E+02 -1.08026E+02  4.27675E+02 -1.33253E+03  9.51369E+01 -1.14450E+01 -6.40402E+02
  8.56337E+02 -3.24953E+00  1.55817E+02  1.03971E+03  6.48815E+02  4.98663E+02  7.05842E+01  2.82528E+02
 -7.21892E+02  9.88966E+02 -1.41885E+03  2.41087E+02 -8.44982E+02 -1.07533E+03 -7.18424E+02 -1.94815E+03
  1.50055E+03 -1.87745E+03  1.69943E+03 -4.42503E+02  1.68094E+03 -4.68849E+02  3.98466E+02  1.39390E+03
  4.64967E+02  1.16416E+03 -1.33541E+02  1.00770E+03 -1.82289E+02  4.15823E+02 -8.86936E+02  4.49294E+02
 -6.41768E+02 -3.72478E+02 -4.78570E+02  2.41659E+02 -1.31122E+03  8.94823E+02 -8.16563E+02 -3.03507E+02
 -1.34309E+03 -3.05515E+01 -2.59725E+02 -1.31637E+03  1.21769E+03 -1.05658E+03  1.24440E+03 -4.64294E+02
  1.33322E+03  2.28857E+02 -3.80375E+02  3.93578E+02 -8.22904E+02  1.27381E+03 -1.15574E+03  1.34252E+03
