 $NMID ID='MM_0lb_SNR400_20hz_g60_19.RAW', FMTDAT='(8E13.5)'
 TRAMP=1., VOLUME=1. $END
  3.09670E+05  5.02522E+02  3.37639E+05  2.50872E+05  8.42800E+04  3.37927E+05 -1.32262E+05  2.50544E+05
 -1.89607E+05  8.28441E+04 -1.11925E+05 -3.24201E+04  4.45941E+02 -5.06264E+04  5.39117E+04 -5.33438E+02
  3.49016E+04  5.28644E+04 -1.65186E+04  7.49603E+04 -6.01533E+04  6.29445E+04 -8.32134E+04  3.12348E+04
 -8.02193E+04 -1.12167E+04 -5.67746E+04 -5.07659E+04 -1.49481E+04 -6.84188E+04  2.71668E+04 -4.52348E+04
  3.98977E+04  4.08592E+03  1.55833E+04  4.78681E+04 -3.39614E+04  4.66563E+04 -6.60757E+04 -2.19281E+02
 -5.22734E+04 -5.63917E+04 -6.35770E+03 -7.56963E+04  3.33387E+04 -5.34441E+04  4.68180E+04 -1.69001E+04
  4.19365E+04  1.12765E+04  3.13504E+04  2.49206E+04  1.57849E+04  2.83998E+04 -4.82252E+03  2.72546E+04
 -2.20161E+04  1.28408E+04 -1.87434E+04 -4.35397E+03  4.46605E+03 -7.04481E+03  2.16519E+04  1.15020E+04
  7.62150E+03  3.38680E+04 -3.15702E+04  3.46703E+04 -6.16810E+04  2.02129E+03 -5.63377E+04 -4.17435E+04
 -1.25551E+04 -6.12344E+04  3.87465E+04 -4.45651E+04  5.63979E+04 -2.38723E+03  3.26020E+04  3.15084E+04
 -6.33616E+03  3.40887E+04 -2.90692E+04  1.42952E+04 -2.82982E+04 -4.89081E+03 -1.56761E+04 -1.01576E+04
 -7.91866E+03 -1.22433E+04 -9.59373E+02 -1.68416E+04  6.52588E+03 -2.24982E+04  1.57085E+04 -1.40026E+04
  1.20882E+04  4.59317E+03 -6.89195E+03  1.31981E+04 -2.01059E+04 -2.66373E+03 -8.44259E+03 -3.12617E+04
  2.15881E+04 -4.16563E+04  4.56645E+04 -1.89649E+04  4.27282E+04  1.90584E+04  1.43962E+04  4.24443E+04
 -1.50018E+04  3.13547E+04 -2.35421E+04  1.28911E+03 -8.91683E+03 -2.64561E+04  2.03451E+04 -3.14560E+04
  3.88595E+04 -7.36652E+03  3.23860E+04  2.32542E+04  1.59189E+04  4.31771E+04 -7.88420E+03  4.67453E+04
 -2.92544E+04  3.12061E+04 -3.83018E+04  8.79266E+03 -3.90052E+04 -1.53728E+04 -2.15911E+04 -3.50938E+04
  7.25671E+03 -3.46040E+04  2.92135E+04 -1.33680E+04  2.77788E+04  1.05901E+04  2.56960E+03  1.80161E+04
 -1.31240E+04  7.67845E+03 -1.00932E+04 -7.70462E+03  6.13307E+03 -1.02643E+04  1.70995E+04  6.52981E+03
  1.28172E+04  2.13107E+04 -6.52831E+03  2.38073E+04 -2.19504E+04  9.73567E+03 -2.57173E+04 -6.23589E+03
 -1.73714E+04 -1.67054E+04 -6.05292E+03 -1.66995E+04  3.88638E+03 -1.54184E+04  1.30925E+04 -1.48662E+04
  2.25133E+04 -1.11255E+04  2.89696E+04  1.19775E+03  2.13226E+04  1.71516E+04  4.14337E+03  3.27731E+04
 -1.66790E+04  2.79304E+04 -2.62001E+04  9.92471E+03 -1.99190E+04 -1.08357E+04 -4.00424E+03 -1.38246E+04
  1.80410E+03 -3.94461E+03 -2.78666E+03  5.67403E+03 -1.28367E+04  5.11857E+03 -1.33928E+04 -4.91485E+03
 -8.59191E+03 -1.55670E+04  4.48448E+03 -1.98538E+04  1.27458E+04 -1.36381E+04  1.53792E+04 -1.74403E+03
  8.90906E+03  1.12164E+04 -6.46220E+02  1.60780E+04 -1.05797E+04  9.02174E+03 -1.52660E+04 -2.58254E+03
 -1.13588E+04 -1.42764E+04 -1.39767E+03 -1.94250E+04  9.17518E+03 -1.55849E+04  1.62838E+04 -7.84597E+03
  1.47860E+04  5.10459E+02  1.07127E+04  3.87540E+03  5.58470E+03  9.44025E+02  7.59521E+03 -1.47705E+03
  1.42091E+04  2.46623E+03  1.49003E+04  1.30981E+04  9.38322E+03  2.52056E+04 -2.54823E+03  2.70856E+04
 -1.65889E+04  2.05610E+04 -2.40138E+04  9.73188E+03 -2.53575E+04 -1.46661E+03 -2.17032E+04 -1.45385E+04
 -1.02971E+04 -2.05879E+04  7.12853E+03 -1.89923E+04  1.64134E+04 -1.08518E+04  1.57377E+04  4.05304E+03
  7.10509E+03  1.12363E+04 -7.15775E+03  1.07727E+04 -1.34191E+04  2.10884E+03 -1.05079E+04 -8.12132E+03
  9.96890E+01 -1.25851E+04  5.98220E+03 -9.51054E+03  7.77738E+03 -1.05700E+03  1.73112E+03  4.81933E+03
 -5.66931E+03  1.28276E+03 -3.34862E+03 -4.79017E+03  5.99499E+02 -1.03467E+04  8.15697E+03 -1.03658E+04
  1.23740E+04 -4.95763E+03  1.22633E+04  2.19744E+03  9.71398E+03  9.75039E+03  5.19750E+03  1.36441E+04
 -1.71327E+03  1.59186E+04 -9.75523E+03  1.02274E+04 -1.09456E+04  3.87451E+03 -8.44533E+03 -1.87517E+03
 -4.74803E+03 -3.25624E+03 -7.99530E+02  1.71240E+03 -1.69587E+03  1.86841E+03 -3.61093E+03  3.77141E+03
 -7.92682E+03 -6.92742E+01 -8.53819E+03 -7.05803E+03 -3.94135E+03 -1.19081E+04  3.39114E+03 -8.31896E+03
  7.38797E+03 -3.59539E+03  4.53297E+03  1.91029E+03  5.45288E+02  2.86220E+03 -3.29596E+03 -2.35364E+02
 -3.49443E+03 -5.19355E+03 -5.01557E+02 -6.77671E+03  3.95000E+03 -7.84694E+03  9.42998E+03 -3.83419E+03
  1.15248E+04  3.90751E+02  8.30451E+03  6.04753E+03  1.98736E+03  8.36361E+03 -4.92095E+03  8.05220E+03
 -6.67367E+03  2.42474E+03 -3.68452E+03 -1.60920E+03  1.55740E+03 -1.57230E+03  4.60951E+03 -7.60671E+02
  3.93897E+03  3.15653E+03  1.52273E+03  6.36224E+03 -4.51482E+03  6.12760E+03 -7.55818E+03  1.18373E+03
 -5.24205E+03 -3.73640E+03  5.58300E+02 -6.75068E+03  3.77712E+03 -2.79696E+03  3.17067E+03  8.98206E+02
  1.20138E+02  3.44828E+03 -4.04912E+03  4.29013E+03 -4.15173E+03  2.13139E+03 -4.60152E+03 -5.25925E+02
 -2.66205E+03 -5.26776E+03  1.29767E+03 -6.49460E+03  5.39141E+03 -4.22246E+03  6.03163E+03  1.48093E+03
  4.27094E+03  4.65887E+03  7.97832E+01  6.88442E+03 -4.54125E+03  4.08212E+03 -4.86185E+03 -4.36021E+02
 -5.59228E+03 -5.31645E+03 -1.74076E+03 -4.63608E+03  2.07357E+03 -4.73735E+03  2.87486E+03 -2.90702E+03
  2.57160E+03  1.52054E+02  2.45900E+01  1.31801E+03  1.44580E+02 -7.10688E+01  6.02612E+02 -2.07301E+03
  2.74198E+03 -6.21179E+02  4.58942E+03  4.00774E+02  4.98574E+03  2.55036E+03  5.38097E+03  6.74752E+03
 -9.24412E+02  7.47250E+03 -7.10970E+03  6.33439E+03 -8.68739E+03  1.37050E+03 -6.63854E+03 -2.01849E+03
 -4.08715E+03 -5.66562E+03 -4.01186E+02 -4.99985E+03  2.01558E+03 -2.06431E+03  1.69774E+03 -1.91096E+03
  1.50245E+03 -1.21931E+03  2.06404E+03 -2.47634E+03  3.22385E+03 -1.54980E+03  2.91611E+03  1.20084E+02
  4.45133E+03  1.56143E+03  3.80968E+02  2.78805E+03 -1.25968E+03  2.50257E+03 -3.69402E+03  1.77211E+03
 -4.63276E+03 -1.08426E+03 -1.36876E+03 -3.04965E+03  6.41635E+02 -3.94290E+03  2.86095E+03 -4.60499E+03
  4.03099E+03 -3.15563E+03  5.85558E+03 -1.88249E+02  4.02923E+03  3.94954E+03  1.24379E+03  5.20241E+03
 -1.69114E+03  5.46835E+03 -3.14129E+03  1.22898E+03 -1.47510E+03 -1.33024E+03 -2.11374E+02 -8.08646E+02
 -2.22754E+02  5.47701E+02 -6.37621E+02  2.32004E+03 -2.23080E+03  1.29168E+03 -3.61286E+03  6.66611E+01
 -1.31933E+03 -3.53328E+03  8.78564E+02 -4.56380E+03  2.07321E+03 -3.84861E+03  2.58596E+03 -3.31173E+02
  3.42349E+03  2.10403E+03  1.32654E+03  2.19729E+03 -9.02754E+02  3.51677E+03 -2.28141E+03  1.97364E+03
 -3.28368E+03  9.06306E+02 -2.79696E+03 -1.99480E+03 -2.96930E+02 -2.55607E+03  1.20623E+03 -1.87495E+03
  1.86761E+03 -8.92376E+02  1.13050E+03  2.90831E+02  6.56680E+02  1.24112E+03  6.79610E+02  9.30877E+02
  1.69295E+03  3.30233E+02  1.19692E+03  1.65800E+03  1.25672E+03  2.35754E+03  1.47199E+03  8.47903E+02
 -1.11280E+03  2.15447E+03 -2.06660E+03  3.82648E+03 -2.30951E+03  1.39950E+03 -3.59051E+03 -2.64340E+02
 -1.39369E+03 -3.13311E+03  7.80189E+02 -4.05311E+03  1.72594E+03 -2.15135E+03  2.72976E+03 -5.60242E+02
  1.74497E+03  1.38821E+03  1.93253E+02  1.95030E+03 -4.82457E+02  1.03414E+03 -5.34009E+02 -1.06955E+02
  4.74363E+01 -1.48622E+03  9.63614E+02 -1.15780E+03  5.85546E+02 -6.27074E+02  8.02800E+02  3.89120E+02
  4.96632E+02  1.26018E+02  7.33145E+02 -6.65013E+02  2.82934E+02  1.21350E+03  2.26480E+03  3.51012E+01
 -1.61902E+02 -2.56109E+02  1.40861E+03  5.74183E+02  2.51540E+02  2.05408E+03 -1.69102E+02  2.68605E+03
 -1.09713E+03  8.30576E+02 -1.76593E+03  3.96437E+02 -1.62916E+03 -5.83449E+02  1.55037E+02 -3.97777E+02
  5.28152E+02 -1.06890E+03  1.15022E+03 -1.08975E+03  3.13536E+02  4.91794E+02 -4.23597E+02  1.25861E+03
 -1.26451E+03  9.24134E+02 -5.40516E+02 -1.21393E+03 -5.06202E+02 -2.07808E+03  4.39083E+02 -8.44340E+02
  1.51506E+02 -4.28062E+02  3.50140E+01  4.04255E+02  1.20920E+03 -2.81711E+02  2.33114E+02  1.05287E+03
 -1.50046E+01  8.57177E+01 -8.93717E+02 -1.47843E+02  1.24320E+03 -3.21538E+02  1.63710E+03 -5.78823E+02
  7.88044E+02  9.49812E+01  2.28820E+03  1.74420E+02  3.75058E+02  1.19196E+03  2.01754E+02  7.05895E+02
 -1.00094E+03 -8.87212E+01 -8.57552E+02  7.96938E+02 -4.59889E+02 -9.15612E+02 -9.52689E+01 -1.29679E+02
  6.54785E+02 -4.94305E+02  7.63191E+02  3.10035E+02 -1.63871E+02  3.49750E+02  2.36132E+02  7.48443E+02
 -6.53298E+02  1.10063E+03 -8.17246E+02  2.45218E+01  1.67428E+02  9.05887E+02 -8.37665E+02  1.38046E+02
 -4.63961E+02  7.11762E+02 -1.66841E+03  4.07509E+02 -7.76842E+02  2.56617E+02 -1.86716E+03 -4.24366E+02
 -9.29233E+02 -1.67765E+03  2.04273E+02 -1.76358E+03  7.74757E+01 -1.97743E+03  1.91555E+03 -1.10226E+03
  1.27672E+03 -6.51881E+01  8.64614E+02  1.37228E+03 -1.36234E+02  1.29804E+02 -7.40051E+02  5.93452E+02
 -1.09428E+03  8.50439E+02 -4.79341E+02 -4.42233E+02  7.68821E+00  3.30022E+02 -5.86780E+02  3.85456E+02
 -8.90937E+02 -8.49256E+01 -8.45216E+02 -1.40368E+02  1.39416E+02 -1.92449E+02 -6.03715E+02 -6.35346E+02
  8.07141E+02 -1.28929E+01 -3.98624E+02 -8.28810E+01  1.14717E+03  9.01688E+02 -5.68456E+02  7.21630E+02
 -1.20147E+03  1.61737E+03 -9.08001E+02  6.99637E+02 -1.14671E+03 -4.84703E+02 -7.92190E+02 -1.44511E+03
 -1.24470E+03 -8.03682E+02 -1.91461E+02 -8.56967E+02 -1.50703E+02 -1.65102E+02  2.23762E+02 -2.01378E+02
  8.00643E+02 -2.83955E+02 -5.08773E+02  4.48094E+02  1.70971E+02 -1.42984E+02 -1.72164E+02  9.47068E+01
  3.93683E+02  1.48741E+02 -1.75884E+01  1.77640E+02  3.52446E+01  8.65867E+01  6.13124E+02 -4.74062E+02
 -3.15826E+01  6.15522E+02  9.72650E+01  2.00307E+02 -1.82040E+02 -2.42647E+02  3.71065E+02 -1.09294E+03
  1.67657E+02  2.17787E+02 -4.99585E+02 -2.91839E+02  6.96662E+02 -1.04175E+03  3.99599E+02  8.32738E+02
  5.54712E+02  6.21617E+02 -1.33075E+02  1.32131E+02 -3.24053E+02  2.85499E+02 -8.39314E+00 -5.74609E+02
 -5.30612E+02 -3.90787E+02 -2.99713E+02  1.27327E+02  2.07310E+01  5.70931E+02 -6.53529E+02 -4.72307E+00
 -7.28449E+02  5.30011E+02 -4.85313E+02 -8.88145E+02  6.57961E+02 -1.28703E+03  5.19153E+01  3.34310E+02
 -6.61259E+00  1.90983E+02 -5.48183E+02  7.62902E+01  2.80956E+02  3.79268E+02 -1.91918E+02  6.02586E+01
