 $NMID ID='MM_0lb_SNR400_8hz_g55_96.RAW', FMTDAT='(8E13.5)'
 TRAMP=1., VOLUME=1. $END
  3.10431E+05  6.16343E+02  3.37227E+05  2.51300E+05  8.45263E+04  3.38624E+05 -1.32175E+05  2.52263E+05
 -1.92007E+05  8.36283E+04 -1.12634E+05 -3.22862E+04 -8.15123E+02 -5.06449E+04  5.37357E+04 -1.46082E+02
  3.55641E+04  5.32851E+04 -1.67038E+04  7.65245E+04 -6.11831E+04  6.50683E+04 -8.59180E+04  3.30965E+04
 -8.24804E+04 -1.21743E+04 -5.79776E+04 -5.25698E+04 -1.50825E+04 -7.09605E+04  2.87903E+04 -4.78479E+04
  4.11005E+04  3.86051E+03  1.67028E+04  4.84432E+04 -3.49580E+04  4.86791E+04 -6.86532E+04 -1.21264E+02
 -5.56236E+04 -5.79014E+04 -6.56118E+03 -7.96788E+04  3.46933E+04 -5.77847E+04  4.97323E+04 -1.84909E+04
  4.62899E+04  1.18483E+04  3.40660E+04  2.68290E+04  1.62771E+04  3.05318E+04 -6.87654E+03  2.89401E+04
 -2.32921E+04  1.20483E+04 -1.76379E+04 -5.43572E+03  6.83335E+03 -6.84140E+03  2.35457E+04  1.42562E+04
  6.96399E+03  3.81942E+04 -3.43037E+04  3.78347E+04 -6.63320E+04  2.55158E+03 -5.99520E+04 -4.50663E+04
 -1.22087E+04 -6.61426E+04  4.20482E+04 -4.85121E+04  6.15534E+04 -2.33691E+03  3.72845E+04  3.43334E+04
 -4.86481E+03  4.04361E+04 -3.25770E+04  1.96773E+04 -3.42470E+04 -2.16731E+03 -2.06820E+04 -1.22307E+04
 -1.00274E+04 -1.54682E+04  4.46680E+02 -2.06987E+04  8.21176E+03 -2.36486E+04  1.57969E+04 -1.24093E+04
  1.03264E+04  6.98377E+03 -1.18692E+04  1.29445E+04 -2.44857E+04 -7.76272E+03 -8.00136E+03 -3.87290E+04
  2.56103E+04 -4.90565E+04  5.30613E+04 -2.18093E+04  4.93214E+04  2.08617E+04  1.86621E+04  4.75833E+04
 -1.74013E+04  3.64837E+04 -2.79207E+04  3.39897E+03 -1.23855E+04 -2.96973E+04  2.15838E+04 -3.82692E+04
  4.58909E+04 -1.10795E+04  4.23960E+04  2.49392E+04  2.32076E+04  5.18989E+04 -7.83466E+03  5.72789E+04
 -3.71374E+04  4.05276E+04 -5.00196E+04  1.17591E+04 -4.90541E+04 -1.93586E+04 -2.73401E+04 -4.31041E+04
  7.46337E+03 -4.33266E+04  3.43670E+04 -1.72672E+04  3.32788E+04  1.09041E+04  5.02249E+03  2.11420E+04
 -1.31396E+04  9.82865E+03 -1.27991E+04 -7.34939E+03  5.59188E+03 -1.11579E+04  1.85972E+04  4.78439E+03
  1.53906E+04  2.27944E+04 -4.37740E+03  2.74539E+04 -2.36863E+04  1.48762E+04 -3.21258E+04 -2.13881E+03
 -2.70372E+04 -1.89074E+04 -1.18891E+04 -2.72986E+04  5.23042E+03 -2.71430E+04  2.14487E+04 -2.48329E+04
  3.43301E+04 -1.49275E+04  3.93743E+04  5.15406E+03  2.86712E+04  2.60155E+04  4.50787E+03  4.35359E+04
 -2.05428E+04  3.50791E+04 -3.11855E+04  1.27936E+04 -2.34502E+04 -9.92609E+03 -5.29531E+03 -1.25532E+04
  7.53752E+02 -1.16784E+03 -8.48154E+03  8.61452E+03 -2.16621E+04  4.32285E+03 -2.11127E+04 -1.09362E+04
 -1.29778E+04 -2.46728E+04  7.23872E+03 -2.95074E+04  2.00323E+04 -2.14672E+04  2.46854E+04 -1.45234E+03
  1.59793E+04  1.69515E+04 -1.35503E+03  2.51161E+04 -1.76672E+04  1.46981E+04 -2.37458E+04 -4.89525E+03
 -1.83997E+04 -2.30515E+04 -1.76593E+03 -2.99399E+04  1.36531E+04 -2.56055E+04  2.44904E+04 -1.31136E+04
  2.28946E+04  2.46755E+02  1.73288E+04  5.76589E+03  9.89389E+03  8.66268E+02  1.27721E+04 -2.80634E+03
  2.35916E+04  3.11275E+03  2.77506E+04  1.98251E+04  1.93638E+04  3.95704E+04 -2.83675E+03  4.76041E+04
 -2.65327E+04  4.04094E+04 -4.45618E+04  1.97814E+04 -4.84116E+04 -3.56304E+03 -3.91525E+04 -2.84104E+04
 -1.52165E+04 -4.02597E+04  1.48192E+04 -3.60959E+04  3.03769E+04 -1.60222E+04  2.57941E+04  9.18193E+03
  8.53283E+03  2.07158E+04 -1.19615E+04  1.63114E+04 -2.11516E+04  2.90543E+03 -1.67243E+04 -1.36278E+04
 -6.69997E+02 -2.14838E+04  1.14699E+04 -1.50950E+04  1.41966E+04 -2.38636E+03  4.07564E+03  9.01164E+03
 -9.27501E+03  4.47019E+03 -1.00737E+04 -7.35556E+03 -2.69354E+03 -1.98829E+04  1.18597E+04 -2.20036E+04
  2.46988E+04 -1.23160E+04  2.95002E+04  3.27564E+03  2.55082E+04  2.09467E+04  1.11415E+04  3.20504E+04
 -6.15171E+03  3.49515E+04 -2.23805E+04  2.11145E+04 -2.48437E+04  3.65961E+03 -1.72254E+04 -6.97781E+03
 -7.86061E+03 -7.48002E+03  6.77144E+02  3.69038E+02 -2.25004E+03  4.02872E+03 -8.64579E+03  6.21871E+03
 -1.47739E+04 -7.29111E+02 -1.57854E+04 -1.26048E+04 -5.33298E+03 -2.16482E+04  6.81784E+03 -1.72166E+04
  1.44138E+04 -5.94634E+03  9.41091E+03  4.97133E+03 -6.80408E+02  7.31655E+03 -8.59735E+03 -5.53824E+02
 -9.13501E+03 -1.13780E+04 -1.35680E+03 -1.65573E+04  1.04187E+04 -1.81679E+04  2.24173E+04 -9.80993E+03
  2.57086E+04  2.77894E+03  1.80949E+04  1.59347E+04  3.13742E+03  2.16811E+04 -1.00530E+04  1.69190E+04
 -1.44689E+04  4.80298E+03 -6.89281E+03 -4.43515E+03  1.89952E+03 -5.01744E+03  9.41153E+03 -1.17407E+03
  7.63439E+03  7.44233E+03  1.12087E+03  1.27956E+04 -9.75391E+03  1.26986E+04 -1.68592E+04  3.49001E+03
 -1.20577E+04 -8.99239E+03 -3.47294E+02 -1.48013E+04  9.95070E+03 -7.16525E+03  9.98450E+03  3.94569E+03
  3.02037E+03  1.05753E+04 -9.09502E+03  1.26656E+04 -1.52903E+04  4.99986E+03 -1.57361E+04 -5.70791E+03
 -8.68848E+03 -1.76012E+04  4.48430E+03 -2.10349E+04  1.82395E+04 -1.28983E+04  1.90165E+04  3.32788E+03
  1.20480E+04  1.45843E+04 -2.84902E+03  1.81803E+04 -1.28244E+04  1.02463E+04 -1.40901E+04 -7.72415E+02
 -1.12764E+04 -1.16246E+04 -2.44581E+03 -1.32829E+04  7.10176E+03 -1.06845E+04  8.51517E+03 -3.77999E+03
  4.50590E+03  2.06347E+03 -9.73334E+02  2.53102E+03 -1.67558E+03 -3.84850E+03  2.83913E+03 -8.52541E+03
  1.20627E+04 -5.26784E+03  1.90623E+04  2.35929E+03  1.76285E+04  1.32651E+04  1.20214E+04  2.25814E+04
 -6.68202E+03  2.69541E+04 -2.23466E+04  1.89176E+04 -3.05362E+04  3.64316E+03 -2.38433E+04 -1.01023E+04
 -1.14915E+04 -2.03369E+04  2.10935E+02 -1.57903E+04  5.59034E+03 -9.78869E+03  5.73520E+03 -5.49000E+03
  3.98483E+03 -3.61170E+03  4.53857E+03 -4.06125E+03  6.70060E+03 -3.95529E+03  7.94887E+03 -7.86262E+02
  1.26275E+04  2.65195E+03  7.76208E+03  1.02246E+04 -2.32777E+03  1.30092E+04 -1.19521E+04  1.09103E+04
 -1.69050E+04 -1.73845E+03 -1.21377E+04 -1.20963E+04 -2.51428E+03 -1.86696E+04  9.76970E+03 -1.79232E+04
  1.86655E+04 -9.80746E+03  2.26274E+04  3.62897E+03  1.65010E+04  1.59575E+04  2.00851E+03  1.94225E+04
 -8.41652E+03  1.63514E+04 -1.19855E+04  4.90900E+03 -8.09579E+03 -1.99946E+03 -4.21959E+03 -2.79616E+03
 -1.78157E+03 -6.51084E+02 -3.45538E+03  3.07785E+03 -7.32520E+03  3.38873E+03 -1.17423E+04 -1.62974E+03
 -8.56787E+03 -1.18436E+04 -6.59073E+02 -1.60359E+04  1.02428E+04 -1.60925E+04  1.73779E+04 -5.98298E+03
  1.74933E+04  8.23032E+03  7.31855E+03  1.60134E+04 -3.92531E+03  1.69617E+04 -1.25572E+04  1.06808E+04
 -1.60176E+04  7.64394E+02 -1.25744E+04 -1.09212E+04 -1.40664E+03 -1.41799E+04  6.71486E+03 -1.06091E+04
  1.14373E+04 -3.51527E+03  8.29630E+03  3.52756E+03  3.07358E+03  5.78435E+03  1.31574E+03  2.18852E+03
  2.85522E+03  2.35021E+03  5.08691E+03  2.12639E+03  4.95216E+03  5.72180E+03  4.66375E+03  9.70970E+03
 -3.33273E+03  1.36106E+04 -1.23880E+04  1.37411E+04 -1.80462E+04  3.45091E+03 -1.89172E+04 -7.51200E+03
 -9.37207E+03 -1.83289E+04  4.29650E+03 -1.91665E+04  1.07650E+04 -1.26249E+04  1.37400E+04 -3.66030E+03
  1.06151E+04  6.01314E+03  3.28215E+03  9.81273E+03 -4.97714E+03  6.86725E+03 -7.61549E+03 -7.20709E+02
 -4.07715E+03 -7.55943E+03  3.69972E+03 -7.24097E+03  7.32529E+03 -4.22719E+03  7.74761E+03  8.28343E+02
  4.84241E+03  3.12773E+03  2.04000E+03  3.26676E+03 -8.19012E+02  2.52558E+03  1.39531E+03 -5.27958E+00
  4.15977E+03 -4.33157E+02  7.62379E+03  3.01120E+03  3.83882E+03  8.86817E+03 -1.36474E+03  1.25854E+04
 -9.18708E+03  8.74224E+03 -1.10171E+04  2.89233E+03 -9.55590E+03 -4.30858E+03 -4.06240E+03 -5.95050E+03
  1.24376E+01 -7.30952E+03  4.79378E+03 -3.74922E+03  4.30097E+03  3.55897E+03 -9.75415E+02  5.57572E+03
 -7.09666E+03  3.09385E+03 -8.06805E+03 -4.75469E+03 -5.57264E+03 -1.00577E+04  1.54183E+03 -9.61572E+03
  6.21399E+03 -5.44231E+03  6.94293E+03 -1.64782E+03  6.83962E+03  2.47262E+03  1.07944E+03  4.44260E+03
 -3.32256E+03  1.54453E+03 -4.56929E+03 -3.95134E+03  2.30816E+03 -8.14610E+03  8.57670E+03 -6.52744E+03
  1.14071E+04  8.25022E+02  1.12219E+04  8.35160E+03  4.80746E+03  1.25616E+04 -4.78010E+03  1.22732E+04
 -9.96044E+03  5.92340E+03 -1.01771E+04 -1.68764E+03 -6.29393E+03 -7.73550E+03  1.50028E+03 -7.56955E+03
  6.91432E+03 -3.43822E+03  6.50444E+03  2.66747E+03  1.70850E+03  6.85014E+03 -4.00345E+02  6.34428E+03
 -3.64853E+03  3.81807E+03 -3.14312E+03  1.44972E+03 -2.01663E+03  1.20717E+03 -1.84570E+03  2.17054E+03
 -3.66569E+03  4.72572E+03 -8.14327E+03  4.64580E+03 -1.20218E+04 -1.06957E+01 -1.34848E+04 -8.15507E+03
 -7.19159E+03 -1.57367E+04  3.42159E+03 -1.89219E+04  1.15042E+04 -1.38493E+04  1.72987E+04 -6.51662E+03
  1.60087E+04  2.63938E+03  1.09414E+04  1.13266E+04  1.16488E+03  1.30415E+04 -5.32728E+03  9.70613E+03
 -7.46358E+03  3.58331E+03 -4.42005E+03 -1.11366E+03 -1.05237E+03 -1.21776E+03 -5.47787E+02  2.56667E+02
 -3.25827E+03  8.71564E+02 -2.88722E+03  7.66873E+01 -1.32030E+03 -3.30077E+03  1.32175E+01 -5.22045E+03
  5.93486E+03 -4.46378E+03  8.39723E+03  8.55443E+02  8.69438E+03  7.08010E+03  1.97174E+03  1.23426E+04
 -6.64002E+03  1.39141E+04 -1.36940E+04  8.18616E+03 -1.58259E+04 -1.72676E+03 -1.18903E+04 -9.75551E+03
 -5.20152E+03 -1.32164E+04  2.96670E+03 -1.14408E+04  7.53150E+03 -6.88164E+03  8.44930E+03  4.91078E+01
  5.10045E+03  4.37656E+03 -7.76331E+02  3.94186E+03 -2.43883E+03  6.46299E+01  2.37924E+02 -3.12054E+03
  4.32152E+03 -2.01044E+03  5.55779E+03  1.88973E+03  4.07761E+03  5.62044E+03 -1.35822E+02  6.38840E+03
 -6.43471E+03  5.45868E+03 -7.80661E+03  7.13605E+02 -7.77459E+03 -6.49691E+03 -2.10448E+03 -1.11893E+04
  6.25528E+03 -9.52933E+03  1.06363E+04 -3.65486E+03  9.95491E+03  2.55103E+03  5.98676E+03  7.78815E+03
  1.84906E+03  8.58430E+03 -3.14384E+03  6.41657E+03 -5.21800E+03  3.75131E+03 -5.42273E+03 -6.95489E+01
 -2.60319E+03 -7.46055E+02 -2.46236E+03  9.46837E+02 -4.88429E+03  1.34463E+03 -7.30220E+03 -1.31925E+03
 -6.50943E+03 -4.93242E+03 -1.41839E+03 -8.88379E+03  3.69574E+03 -9.60783E+03  8.55098E+03 -5.07787E+03
  9.07786E+03  1.72884E+03  5.52350E+03  5.90386E+03 -1.10999E+02  9.48764E+03 -6.60629E+03  6.68509E+03
