 $NMID ID='MM_0lb_SNR400_7hz_g40_75.RAW', FMTDAT='(8E13.5)'
 TRAMP=1., VOLUME=1. $END
  3.08867E+05  8.41417E+02  3.37536E+05  2.50365E+05  8.47028E+04  3.38600E+05 -1.33155E+05  2.51985E+05
 -1.91272E+05  8.47339E+04 -1.12993E+05 -3.24039E+04  1.04525E+03 -5.01235E+04  5.34741E+04 -7.72073E+02
  3.54882E+04  5.41261E+04 -1.66908E+04  7.65050E+04 -6.05023E+04  6.52061E+04 -8.49181E+04  3.35701E+04
 -8.21311E+04 -1.21407E+04 -5.78459E+04 -5.27493E+04 -1.50132E+04 -7.15505E+04  2.87327E+04 -4.61429E+04
  4.14304E+04  3.55317E+03  1.67240E+04  4.81958E+04 -3.42146E+04  4.85868E+04 -6.85732E+04  3.57342E+02
 -5.57880E+04 -5.84237E+04 -8.10728E+03 -7.81078E+04  3.41024E+04 -5.69523E+04  5.06628E+04 -1.92977E+04
  4.55467E+04  1.15869E+04  3.34392E+04  2.67687E+04  1.56500E+04  3.03386E+04 -5.74429E+03  2.80153E+04
 -2.18321E+04  1.20062E+04 -1.71554E+04 -5.34892E+03  7.91957E+03 -7.77934E+03  2.41234E+04  1.37763E+04
  6.74506E+03  3.78184E+04 -3.37592E+04  3.78737E+04 -6.65559E+04  2.61259E+03 -5.96097E+04 -4.49063E+04
 -1.22922E+04 -6.68544E+04  4.24832E+04 -4.77109E+04  6.19035E+04 -2.17057E+03  3.82115E+04  3.40596E+04
 -5.75224E+03  3.95062E+04 -3.18968E+04  1.91253E+04 -3.39724E+04 -3.22355E+03 -1.91250E+04 -1.21745E+04
 -1.03767E+04 -1.54417E+04 -5.23154E+02 -2.04583E+04  8.92936E+03 -2.43534E+04  1.49744E+04 -1.23268E+04
  9.56529E+03  6.51630E+03 -1.19511E+04  1.28435E+04 -2.43548E+04 -7.43572E+03 -7.92991E+03 -3.82896E+04
  2.49736E+04 -4.73920E+04  5.33983E+04 -2.13178E+04  4.92048E+04  2.15429E+04  1.78725E+04  4.87778E+04
 -1.69812E+04  3.68955E+04 -2.80091E+04  3.44929E+03 -1.20233E+04 -2.98681E+04  2.23770E+04 -3.76448E+04
  4.52381E+04 -1.13289E+04  4.12038E+04  2.63967E+04  2.20838E+04  5.31159E+04 -8.63215E+03  5.81954E+04
 -3.56151E+04  3.95112E+04 -4.87094E+04  1.09818E+04 -4.96874E+04 -1.91747E+04 -2.56770E+04 -4.31730E+04
  8.22074E+03 -4.23224E+04  3.46318E+04 -1.82609E+04  3.23719E+04  1.10230E+04  6.06485E+03  2.13965E+04
 -1.42907E+04  9.79512E+03 -1.15234E+04 -8.15650E+03  5.69163E+03 -1.15525E+04  1.97458E+04  4.85146E+03
  1.55269E+04  2.27119E+04 -4.94084E+03  2.68826E+04 -2.40646E+04  1.48003E+04 -3.20052E+04 -2.85381E+03
 -2.63478E+04 -1.85565E+04 -1.21892E+04 -2.67185E+04  4.38857E+03 -2.72480E+04  2.08426E+04 -2.44944E+04
  3.41788E+04 -1.54415E+04  3.94411E+04  5.25128E+03  2.73537E+04  2.60483E+04  4.55407E+03  4.19135E+04
 -2.04310E+04  3.41161E+04 -3.14906E+04  1.17242E+04 -2.27429E+04 -1.04230E+04 -5.01249E+03 -1.27729E+04
  8.73081E+02 -3.39337E+02 -7.13524E+03  9.34464E+03 -2.06352E+04  5.35540E+03 -2.09576E+04 -9.68030E+03
 -1.16356E+04 -2.48429E+04  6.20370E+03 -2.90689E+04  1.87397E+04 -2.04844E+04  2.43204E+04 -1.11717E+03
  1.48230E+04  1.63391E+04 -1.11921E+03  2.43215E+04 -1.67045E+04  1.43794E+04 -2.39366E+04 -5.05238E+03
 -1.87687E+04 -2.24936E+04 -1.75796E+03 -2.90269E+04  1.21368E+04 -2.45967E+04  2.40291E+04 -1.15088E+04
  2.26757E+04 -3.40885E+02  1.70919E+04  6.07777E+03  8.81379E+03  1.25141E+03  1.28303E+04 -2.07750E+03
  2.36200E+04  2.88445E+03  2.70594E+04  1.89146E+04  1.92093E+04  4.03171E+04 -2.57899E+03  4.67469E+04
 -2.62298E+04  3.92220E+04 -4.53184E+04  2.06493E+04 -4.79708E+04 -3.13369E+03 -3.82581E+04 -2.79492E+04
 -1.56917E+04 -4.03668E+04  1.51140E+04 -3.46805E+04  3.04478E+04 -1.54341E+04  2.52811E+04  8.70512E+03
  9.49949E+03  2.02755E+04 -1.24078E+04  1.61629E+04 -2.08308E+04  3.04923E+03 -1.65169E+04 -1.39698E+04
  4.10053E+02 -2.01258E+04  1.08956E+04 -1.51037E+04  1.43190E+04 -1.48470E+03  3.76014E+03  9.20172E+03
 -9.81905E+03  4.79815E+03 -9.75257E+03 -7.19536E+03 -2.33680E+03 -2.04817E+04  1.22476E+04 -2.18290E+04
  2.50681E+04 -1.24424E+04  2.76272E+04  3.00839E+03  2.49905E+04  1.97394E+04  1.16271E+04  3.22202E+04
 -5.64006E+03  3.32363E+04 -2.23740E+04  2.13770E+04 -2.47608E+04  3.99340E+03 -1.67392E+04 -7.05951E+03
 -7.39632E+03 -7.44492E+03 -6.16425E+02  3.32884E+02 -2.92247E+03  4.11692E+03 -8.10721E+03  6.22365E+03
 -1.51080E+04 -1.20829E+03 -1.62931E+04 -1.18491E+04 -6.05440E+03 -2.01028E+04  7.33408E+03 -1.62681E+04
  1.43267E+04 -7.44444E+03  1.02965E+04  4.43548E+03 -7.84144E+01  6.97166E+03 -8.01282E+03 -1.24248E+02
 -7.66518E+03 -1.08302E+04 -1.64135E+03 -1.81578E+04  1.09702E+04 -1.75663E+04  2.13490E+04 -9.60960E+03
  2.59967E+04  3.76563E+03  1.91181E+04  1.56057E+04  4.03841E+03  2.14548E+04 -1.01234E+04  1.74694E+04
 -1.33119E+04  6.23863E+03 -6.53958E+03 -4.33465E+03  2.21630E+03 -5.34644E+03  9.34446E+03 -1.40945E+03
  8.08103E+03  8.58143E+03  9.76882E+02  1.46501E+04 -9.88779E+03  1.33310E+04 -1.77221E+04  3.46796E+03
 -1.18542E+04 -9.52472E+03  6.05484E+02 -1.44688E+04  9.16775E+03 -7.90727E+03  1.19091E+04  3.24310E+03
  2.84814E+03  1.20048E+04 -9.74737E+03  1.19104E+04 -1.58758E+04  5.57875E+03 -1.63806E+04 -6.18519E+03
 -9.08587E+03 -1.74562E+04  4.99677E+03 -2.05902E+04  1.69692E+04 -1.20475E+04  1.87298E+04  4.37088E+03
  1.14936E+04  1.48305E+04 -1.46595E+03  1.80564E+04 -1.25169E+04  1.01909E+04 -1.42917E+04 -1.80353E+03
 -1.19820E+04 -1.19970E+04 -2.74353E+03 -1.45664E+04  7.19767E+03 -1.15464E+04  8.48979E+03 -4.29307E+03
  5.46578E+03  2.58416E+03 -1.46160E+03  2.42600E+03 -7.75819E+02 -3.89405E+03  2.75909E+03 -8.93903E+03
  1.29689E+04 -5.16904E+03  1.84788E+04  1.75300E+03  1.79141E+04  1.31624E+04  1.13219E+04  2.30986E+04
 -5.39023E+03  2.80265E+04 -2.22736E+04  2.04329E+04 -2.96490E+04  5.10146E+03 -2.37200E+04 -1.13333E+04
 -1.17657E+04 -1.95447E+04  3.22775E+01 -1.75456E+04  6.22160E+03 -9.62318E+03  6.16838E+03 -5.98327E+03
  4.28782E+03 -3.88792E+03  4.16810E+03 -3.94124E+03  6.46107E+03 -4.44112E+03  8.60008E+03 -2.37309E+03
  1.22013E+04  3.03439E+03  7.61669E+03  1.09713E+04 -3.07204E+03  1.30800E+04 -1.34928E+04  9.65794E+03
 -1.74036E+04 -1.11872E+03 -1.13874E+04 -1.09778E+04 -1.69566E+03 -1.86819E+04  1.04179E+04 -1.79296E+04
  1.95311E+04 -1.01832E+04  2.24962E+04  2.88831E+03  1.53312E+04  1.60030E+04  1.81611E+03  2.04447E+04
 -8.06463E+03  1.70159E+04 -1.26880E+04  5.90140E+03 -7.88700E+03 -2.75549E+03 -3.69418E+03 -2.57985E+03
 -2.11439E+03 -5.74557E+02 -3.02965E+03  3.70770E+03 -7.94173E+03  2.68391E+03 -1.22106E+04 -1.59375E+03
 -8.69804E+03 -1.28612E+04  4.82769E+02 -1.76394E+04  1.07498E+04 -1.59546E+04  1.71069E+04 -4.95565E+03
  1.71421E+04  7.66907E+03  8.07349E+03  1.50662E+04 -3.44017E+03  1.71672E+04 -1.28112E+04  1.26700E+04
 -1.70506E+04  4.31026E+01 -1.20821E+04 -1.15083E+04 -1.32696E+03 -1.52228E+04  7.42145E+03 -1.03232E+04
  1.15318E+04 -3.52186E+03  6.79202E+03  2.84557E+03  3.06738E+03  5.27533E+03  2.13292E+03  2.44541E+03
  3.48230E+03  1.24019E+03  4.67554E+03  2.27455E+03  5.13971E+03  5.56045E+03  4.76889E+03  1.06463E+04
 -2.93453E+03  1.34888E+04 -1.20893E+04  1.43106E+04 -1.86095E+04  4.38660E+03 -1.97735E+04 -7.92175E+03
 -8.37766E+03 -1.85530E+04  1.92491E+03 -1.97981E+04  1.12242E+04 -1.21313E+04  1.51459E+04 -2.74155E+03
  1.11990E+04  7.59046E+03  2.74348E+03  1.01404E+04 -5.17443E+03  7.42030E+03 -8.08224E+03 -1.56639E+03
 -3.84299E+03 -7.03833E+03  3.72834E+03 -8.18608E+03  8.06308E+03 -4.83934E+03  7.82705E+03  1.01699E+03
  5.01396E+03  3.67107E+03  1.06255E+03  3.90913E+03 -3.12920E+02  1.81559E+03  2.01361E+03 -1.03503E+03
  3.51887E+03 -8.28076E+02  7.71565E+03  3.00193E+03  4.27416E+03  9.88141E+03 -1.57079E+03  1.30724E+04
 -9.11304E+03  9.77144E+03 -1.26886E+04  2.35228E+03 -1.04684E+04 -4.35544E+03 -4.87074E+03 -7.88608E+03
  1.18520E+03 -7.56181E+03  5.27493E+03 -3.04627E+03  4.60170E+03  3.31991E+03 -2.02719E+03  6.86933E+03
 -6.80077E+03  4.38412E+03 -8.54344E+03 -4.30302E+03 -5.24522E+03 -1.02178E+04  7.85528E+02 -1.10836E+04
  6.04720E+03 -6.75115E+03  8.01334E+03 -1.79090E+03  6.21052E+03  3.16395E+03  1.23615E+03  5.65021E+03
 -3.86912E+03  1.67961E+03 -4.33041E+03 -4.38368E+03  3.00770E+02 -8.43219E+03  9.89507E+03 -6.49940E+03
  1.20897E+04  1.65117E+02  1.17229E+04  8.60148E+03  3.41570E+03  1.34060E+04 -4.04637E+03  1.18329E+04
 -1.03180E+04  5.64725E+03 -1.10893E+04 -2.16940E+03 -5.28253E+03 -8.43788E+03  2.05370E+03 -7.94455E+03
  9.00833E+03 -2.80202E+03  6.87045E+03  2.44180E+03  2.11051E+03  7.13223E+03 -1.25621E+03  6.74231E+03
 -3.71722E+03  3.69339E+03 -3.03430E+03  1.44034E+03 -8.20197E+02  9.82583E+02 -1.36962E+03  1.75970E+03
 -3.21856E+03  4.87826E+03 -8.39586E+03  4.13836E+03 -1.33598E+04  1.61084E+02 -1.49099E+04 -9.07478E+03
 -7.69488E+03 -1.65381E+04  3.05159E+03 -2.01339E+04  1.19514E+04 -1.50237E+04  1.95902E+04 -5.36099E+03
  1.71437E+04  3.66027E+03  1.05644E+04  1.19231E+04  1.20818E+03  1.42167E+04 -6.18807E+03  1.00230E+04
 -6.83394E+03  3.89580E+03 -4.27717E+03 -1.66560E+03 -1.42265E+03 -1.36941E+03 -1.03456E+03 -1.65689E+01
 -2.44995E+03  5.05227E+02 -3.05253E+03 -4.91703E+02 -1.16773E+03 -3.03498E+03  1.63846E+02 -4.58762E+03
  6.60518E+03 -4.62886E+03  8.64544E+03  1.06781E+02  9.41287E+03  7.99952E+03  2.99993E+03  1.32504E+04
 -6.20202E+03  1.61656E+04 -1.45662E+04  8.09078E+03 -1.67776E+04 -9.25007E+02 -1.20792E+04 -1.06826E+04
 -4.71731E+03 -1.44430E+04  3.66895E+03 -1.34582E+04  9.83693E+03 -7.10833E+03  9.51886E+03  1.15085E+03
  4.66395E+03  4.76432E+03 -3.93697E+02  4.09093E+03 -3.21162E+03 -1.24686E+03 -1.63307E+01 -2.81609E+03
  4.72553E+03 -1.61962E+03  6.37781E+03  2.21089E+03  4.00157E+03  4.98737E+03 -1.77639E+02  8.38312E+03
 -6.86056E+03  6.77855E+03 -1.03585E+04  1.08127E+03 -7.44381E+03 -6.76563E+03 -9.93151E+02 -1.21421E+04
  7.69829E+03 -1.01553E+04  1.08068E+04 -3.02132E+03  1.17976E+04  1.95978E+03  6.73618E+03  9.07594E+03
  7.76745E+02  9.49276E+03 -3.63160E+03  7.29789E+03 -6.97556E+03  3.93572E+03 -5.58673E+03  1.11374E+03
 -3.06418E+03 -9.41990E+01 -2.00574E+03  1.19848E+03 -4.19936E+03  2.17388E+03 -7.70452E+03 -1.41380E+03
 -7.38990E+03 -4.94828E+03 -1.92319E+03 -9.55933E+03  4.55231E+03 -1.03422E+04  8.53969E+03 -5.70533E+03
  9.59911E+03  1.70637E+03  4.87500E+03  7.23792E+03 -9.02034E+02  1.03159E+04 -7.58968E+03  7.08563E+03
