 $NMID ID='MM_0lb_SNR400_17hz_g60_14.RAW', FMTDAT='(8E13.5)'
 TRAMP=1., VOLUME=1. $END
  3.09591E+05  6.87706E+02  3.37757E+05  2.50531E+05  8.44764E+04  3.37787E+05 -1.32691E+05  2.50546E+05
 -1.89809E+05  8.30604E+04 -1.12239E+05 -3.30872E+04  1.18835E+03 -5.05151E+04  5.34730E+04 -5.36152E+02
  3.49077E+04  5.33333E+04 -1.63142E+04  7.55849E+04 -6.04064E+04  6.31959E+04 -8.40562E+04  3.17747E+04
 -8.13025E+04 -1.14592E+04 -5.77980E+04 -5.13111E+04 -1.52616E+04 -6.96598E+04  2.74945E+04 -4.51189E+04
  4.07044E+04  4.36066E+03  1.58583E+04  4.71521E+04 -3.43863E+04  4.68829E+04 -6.67563E+04 -2.42144E+02
 -5.27830E+04 -5.71751E+04 -6.60748E+03 -7.64700E+04  3.41550E+04 -5.44332E+04  4.72036E+04 -1.68481E+04
  4.28525E+04  1.19429E+04  3.15629E+04  2.47966E+04  1.62434E+04  2.90279E+04 -5.47356E+03  2.76227E+04
 -2.17507E+04  1.24455E+04 -1.90730E+04 -4.65680E+03  5.25898E+03 -7.19368E+03  2.21092E+04  1.14933E+04
  6.67865E+03  3.48363E+04 -3.14848E+04  3.55172E+04 -6.29538E+04  1.41342E+03 -5.63013E+04 -4.23772E+04
 -1.23143E+04 -6.28375E+04  3.93546E+04 -4.49319E+04  5.79732E+04 -2.43650E+03  3.37188E+04  3.21284E+04
 -6.56368E+03  3.57210E+04 -2.90363E+04  1.51496E+04 -2.95828E+04 -4.35534E+03 -1.66156E+04 -1.07467E+04
 -7.79603E+03 -1.31071E+04 -1.10924E+03 -1.75968E+04  7.20070E+03 -2.33980E+04  1.54736E+04 -1.34649E+04
  1.11996E+04  4.30653E+03 -7.73478E+03  1.28215E+04 -2.14431E+04 -4.47276E+03 -7.83577E+03 -3.28966E+04
  2.26483E+04 -4.30585E+04  4.73678E+04 -1.96159E+04  4.45845E+04  1.93839E+04  1.49453E+04  4.32626E+04
 -1.54923E+04  3.33286E+04 -2.49435E+04  2.00179E+03 -9.33283E+03 -2.72627E+04  2.02581E+04 -3.33540E+04
  4.06568E+04 -8.75076E+03  3.49738E+04  2.36084E+04  1.68027E+04  4.56035E+04 -7.98067E+03  4.89682E+04
 -3.06458E+04  3.33000E+04 -4.16717E+04  9.50777E+03 -4.21806E+04 -1.58267E+04 -2.34822E+04 -3.76671E+04
  7.22680E+03 -3.65072E+04  3.07888E+04 -1.39897E+04  2.87798E+04  1.08703E+04  4.01213E+03  1.93372E+04
 -1.35518E+04  7.71627E+03 -1.01158E+04 -7.84926E+03  6.26387E+03 -1.04684E+04  1.79209E+04  6.30871E+03
  1.34034E+04  2.23569E+04 -5.89298E+03  2.49842E+04 -2.21154E+04  1.05019E+04 -2.71089E+04 -5.00031E+03
 -1.94186E+04 -1.70331E+04 -8.01891E+03 -1.96430E+04  4.36225E+03 -1.83988E+04  1.53639E+04 -1.73868E+04
  2.49432E+04 -1.24682E+04  3.12418E+04  2.39196E+03  2.29521E+04  1.90255E+04  3.96089E+03  3.50886E+04
 -1.69736E+04  2.98703E+04 -2.66121E+04  1.01672E+04 -2.04955E+04 -1.05450E+04 -4.32727E+03 -1.31230E+04
  1.59632E+03 -2.57793E+03 -4.55685E+03  5.75804E+03 -1.48885E+04  5.28646E+03 -1.53445E+04 -6.32804E+03
 -9.83593E+03 -1.77980E+04  5.20154E+03 -2.21182E+04  1.53210E+04 -1.60362E+04  1.72074E+04 -1.77348E+03
  1.08874E+04  1.25583E+04 -8.82041E+02  1.78641E+04 -1.25296E+04  1.00400E+04 -1.76708E+04 -4.02972E+03
 -1.32280E+04 -1.56622E+04 -1.41864E+03 -2.17799E+04  1.01697E+04 -1.78462E+04  1.81529E+04 -8.50743E+03
  1.69643E+04  4.82298E+02  1.19271E+04  4.37339E+03  6.41433E+03  7.18353E+02  9.00506E+03 -1.12369E+03
  1.62439E+04  2.70680E+03  1.75483E+04  1.40765E+04  1.18122E+04  2.86321E+04 -2.47894E+03  3.14755E+04
 -1.84648E+04  2.46627E+04 -2.90087E+04  1.18530E+04 -3.03268E+04 -1.98598E+03 -2.53943E+04 -1.74494E+04
 -1.17367E+04 -2.55642E+04  8.36473E+03 -2.26891E+04  1.93305E+04 -1.25424E+04  1.76327E+04  4.40789E+03
  6.90135E+03  1.32804E+04 -8.50032E+03  1.20888E+04 -1.53449E+04  2.63818E+03 -1.19286E+04 -8.99856E+03
  2.84708E+01 -1.41390E+04  7.01105E+03 -1.02619E+04  9.85788E+03 -1.35334E+03  2.18146E+03  5.80376E+03
 -5.80932E+03  2.22098E+03 -5.05653E+03 -5.14302E+03 -5.69643E+01 -1.13917E+04  8.46550E+03 -1.23977E+04
  1.48261E+04 -6.54737E+03  1.55140E+04  2.79794E+03  1.33666E+04  1.16283E+04  6.72301E+03  1.77973E+04
 -2.36899E+03  1.95405E+04 -1.26111E+04  1.28895E+04 -1.42342E+04  3.18552E+03 -9.93044E+03 -2.72648E+03
 -4.88963E+03 -4.29878E+03 -5.87522E+02  1.77351E+03 -1.98317E+03  2.44756E+03 -4.53020E+03  4.03911E+03
 -9.42289E+03 -6.64088E+02 -9.81160E+03 -8.05803E+03 -4.18994E+03 -1.35036E+04  4.19703E+03 -9.86751E+03
  8.61546E+03 -4.58489E+03  6.45844E+03  2.96292E+03  3.89464E+02  4.06526E+03 -4.59000E+03 -4.55571E+02
 -3.89720E+03 -6.11226E+03 -6.24070E+02 -9.15852E+03  5.02143E+03 -1.00845E+04  1.18497E+04 -5.48559E+03
  1.49414E+04  1.15694E+03  1.06196E+04  8.20804E+03  1.54261E+03  1.16891E+04 -6.31657E+03  9.74639E+03
 -8.60031E+03  2.93630E+03 -4.71124E+03 -2.13317E+03  9.50062E+02 -2.84835E+03  5.43719E+03 -1.08633E+03
  5.23283E+03  3.88652E+03  8.66674E+02  7.46708E+03 -5.19758E+03  7.61174E+03 -9.42090E+03  1.78527E+03
 -6.34302E+03 -4.94041E+03  5.22334E+01 -7.99223E+03  5.16783E+03 -3.79768E+03  4.99483E+03  1.36998E+03
  6.00204E+02  4.80705E+03 -4.68004E+03  6.11451E+03 -6.72008E+03  2.88031E+03 -5.98551E+03 -2.06884E+03
 -4.06567E+03 -7.94734E+03  1.94174E+03 -9.08427E+03  7.64106E+03 -5.49178E+03  7.77855E+03  1.02581E+03
  6.02003E+03  6.21362E+03 -4.17070E+02  9.20658E+03 -6.02364E+03  4.86595E+03 -6.28358E+03 -2.46398E+02
 -6.25027E+03 -5.90045E+03 -1.71906E+03 -6.18513E+03  3.17897E+03 -5.73319E+03  4.01215E+03 -2.63490E+03
  3.22659E+03  4.66420E+02  2.90973E+02  2.15588E+03 -2.32345E+02 -7.14648E+02  7.02079E+02 -3.25682E+03
  5.32007E+03 -1.44670E+03  8.02202E+03  6.17530E+02  7.58534E+03  4.67463E+03  6.63635E+03  9.76838E+03
 -1.64212E+03  1.09575E+04 -9.58418E+03  8.49562E+03 -1.22294E+04  1.64160E+03 -9.64606E+03 -3.92731E+03
 -5.05482E+03 -8.74980E+03 -4.58630E+02 -6.48302E+03  2.04915E+03 -3.11395E+03  2.51261E+03 -2.58790E+03
  1.46084E+03 -1.90670E+03  2.35073E+03 -3.06262E+03  3.89040E+03 -1.63183E+03  4.57986E+03  4.77974E+01
  5.68519E+03  5.05821E+02  2.18303E+03  4.43070E+03 -1.78349E+03  3.99645E+03 -5.81026E+03  3.74826E+03
 -6.68111E+03 -1.13383E+03 -3.11490E+03 -4.38229E+03  9.61706E+02 -6.74259E+03  3.61890E+03 -7.31492E+03
  6.27893E+03 -4.18537E+03  8.68124E+03  3.43896E+02  6.45811E+03  5.75552E+03  1.67762E+03  7.98808E+03
 -2.89010E+03  7.16280E+03 -4.30811E+03  2.56344E+03 -2.53093E+03 -9.85596E+02 -7.77074E+02 -2.37946E+02
 -5.28412E+02  3.00226E+02 -1.70092E+03  2.43262E+03 -3.18762E+03  1.13690E+03 -4.56566E+03 -4.05881E+02
 -2.39648E+03 -4.78252E+03  6.37042E+02 -6.01161E+03  3.61495E+03 -5.51641E+03  5.33154E+03 -2.18008E+03
  5.18904E+03  2.63559E+03  2.24224E+03  4.22385E+03 -7.11714E+02  6.04472E+03 -2.92399E+03  3.77832E+03
 -4.71296E+03  5.69468E+02 -4.32491E+03 -3.61761E+03 -6.26129E+02 -4.50493E+03  2.38311E+03 -3.19452E+03
  3.59301E+03 -1.76713E+03  3.25085E+03  3.51252E+02  8.16547E+02  2.61420E+03  5.44245E+02  7.70916E+02
  2.11028E+03 -1.12904E+02  1.33622E+03  1.28957E+03  1.42014E+03  2.55632E+03  1.66029E+03  3.37402E+03
 -1.13485E+03  4.27412E+03 -4.22814E+03  5.32273E+03 -4.52041E+03  1.57826E+03 -4.94630E+03 -1.15028E+03
 -2.61117E+03 -5.08673E+03 -2.36715E+02 -5.65148E+03  3.11155E+03 -3.26265E+03  3.97225E+03 -9.68206E+02
  3.33674E+03  2.54566E+03 -1.28650E+02  3.03242E+03 -9.85942E+02  1.67169E+03 -9.69914E+02 -1.86100E+02
 -7.96066E+02 -2.28774E+03  1.53987E+03 -2.35544E+03  2.08565E+03 -1.34272E+03  2.35594E+03  6.10754E+02
  1.11807E+03  2.24071E+02  1.04934E+03  2.52352E+02 -5.64307E+02  5.67845E+02  1.37562E+03 -4.71307E+02
 -1.48628E+02 -8.11728E+02  2.24511E+03  1.06847E+03  6.07545E+02  3.13036E+03 -1.06621E+03  3.55469E+03
 -2.02880E+03  1.47365E+03 -3.06822E+03  5.37510E+02 -2.10211E+03 -4.44912E+02 -4.90513E+02 -1.61677E+03
  1.05226E+03 -1.70610E+03  1.40703E+03 -1.50756E+02  1.47781E+03  1.25419E+03 -8.62192E+02  1.52105E+03
 -1.39132E+03  1.78242E+03 -1.69169E+03 -9.21063E+02 -1.05031E+03 -2.86377E+03  8.59181E+01 -2.41461E+03
  9.18168E+02 -7.36129E+02  1.18102E+03  1.23634E+02  2.07101E+03  3.39474E+01 -3.20270E+01  7.57463E+02
 -4.57973E+02  3.00113E+02 -1.28984E+03  7.98436E+01  4.80568E+02 -1.10927E+03  2.67632E+03 -1.11511E+03
  1.63568E+03  4.11475E+02  3.46066E+03  5.62533E+02  1.19170E+03  2.26424E+03 -2.40406E+02  2.48410E+03
 -2.06841E+03  2.53049E+02 -2.24738E+03 -3.82670E+02 -1.46640E+03 -1.85199E+03  5.45907E+01 -6.32745E+02
  1.57143E+03 -6.54867E+02  1.02639E+03  9.58735E+02  5.90632E+02  1.30916E+03  1.01070E+02  1.39986E+03
 -6.84506E+02  1.23285E+03 -6.19589E+02  4.10015E+02 -2.57219E+02  7.73278E+01 -6.59966E+02  1.22283E+03
 -7.00061E+02  5.18058E+02 -2.05598E+03  1.22521E+03 -2.36658E+03 -1.78335E+02 -2.73515E+03 -1.38554E+03
 -1.28863E+03 -3.93004E+03  2.57202E+02 -3.94389E+03  9.68399E+02 -2.90744E+03  3.77323E+03 -9.50507E+02
  3.24707E+03  2.32001E+01  1.70255E+03  2.09661E+03 -2.03355E+02  2.60066E+03 -1.28257E+03  8.95585E+02
 -1.82976E+03  5.94381E+02 -1.58432E+03 -6.00056E+02 -6.24542E+02  2.47864E+02  1.88436E+02  1.70827E+02
 -1.21298E+03  1.24024E+02 -1.14027E+03 -3.51173E+02  1.25461E+02 -5.00278E+02 -1.78882E+02 -1.61057E+03
  1.33074E+03 -2.11190E+02  8.85229E+02  4.87902E+02  1.04190E+03  1.24483E+03 -3.78955E+02  2.83004E+03
 -6.33540E+02  3.27624E+03 -1.99630E+03  1.70882E+03 -2.40493E+03  2.73974E+02 -2.28971E+03 -1.09221E+03
 -8.72067E+02 -1.74918E+03  5.39195E+02 -1.61929E+03  1.18091E+03 -9.47898E+02  6.69927E+02  7.41782E+02
  6.17793E+02  3.91051E+02 -1.65034E+02  8.66560E+02 -1.23678E+02 -3.23449E+02 -8.67114E+01 -6.49768E+02
  1.43633E+03  1.65697E+02  4.23869E+02  5.76637E+02 -1.60248E+02  2.58344E+02  2.61781E+02  4.64081E+02
 -8.61704E+02  5.81725E+02 -8.77412E+02  5.01865E+02 -7.98739E+02 -5.67217E+02  1.60883E+02 -1.75217E+03
  5.37851E+02 -1.54913E+03  3.48625E+02  1.58957E+02  1.55144E+03 -8.52082E+02  1.10255E+03  1.04030E+03
  6.89140E+02  7.53074E+02 -2.30799E+02  3.36763E+02 -5.10922E+02  1.36270E+03 -3.74355E+02  5.26152E+02
  4.65126E+00  1.93673E+02 -1.07058E+03 -2.10673E+00 -1.06445E+03  5.75324E+02 -2.95397E+02 -4.55351E+02
 -1.24679E+03 -1.88816E+02 -4.59122E+02 -1.01549E+03  8.33301E+02 -1.60093E+03  1.19153E+03 -9.42070E+00
  1.08615E+03  6.47968E+00 -2.64784E+02  3.90082E+01 -1.47072E+02  8.20986E+02 -8.01785E+01  1.81538E+03
