 $NMID ID='MM_0lb_SNR400_9hz_g50_20.RAW', FMTDAT='(8E13.5)'
 TRAMP=1., VOLUME=1. $END
  3.09356E+05  3.89432E+02  3.37557E+05  2.50570E+05  8.46349E+04  3.38706E+05 -1.33532E+05  2.51862E+05
 -1.90956E+05  8.35002E+04 -1.12652E+05 -3.27061E+04 -3.31104E+02 -5.05206E+04  5.37920E+04 -1.28212E+03
  3.58845E+04  5.25292E+04 -1.62258E+04  7.56963E+04 -6.13616E+04  6.37258E+04 -8.47445E+04  3.19454E+04
 -8.20279E+04 -1.16119E+04 -5.82994E+04 -5.19807E+04 -1.53091E+04 -7.11809E+04  2.88691E+04 -4.65507E+04
  4.16180E+04  3.61438E+03  1.67219E+04  4.84583E+04 -3.49582E+04  4.80451E+04 -6.82834E+04  1.46055E+02
 -5.42780E+04 -5.83896E+04 -7.40427E+03 -7.91678E+04  3.42389E+04 -5.63368E+04  4.99444E+04 -1.84198E+04
  4.52531E+04  1.26432E+04  3.20442E+04  2.63013E+04  1.68218E+04  2.96434E+04 -5.57065E+03  2.75675E+04
 -2.32725E+04  1.13170E+04 -1.75585E+04 -5.12413E+03  7.18952E+03 -7.12632E+03  2.39827E+04  1.41627E+04
  7.24582E+03  3.72643E+04 -3.40593E+04  3.76318E+04 -6.57497E+04  2.12561E+03 -5.81888E+04 -4.49448E+04
 -1.33314E+04 -6.60770E+04  4.12679E+04 -4.75874E+04  6.13998E+04 -2.66221E+03  3.65809E+04  3.45072E+04
 -5.82700E+03  3.90483E+04 -3.13618E+04  1.88408E+04 -3.31234E+04 -3.50691E+03 -1.92308E+04 -1.21375E+04
 -9.48210E+03 -1.54904E+04 -1.69364E+02 -1.86115E+04  8.05111E+03 -2.41477E+04  1.52781E+04 -1.20753E+04
  1.07837E+04  6.57608E+03 -1.07482E+04  1.28319E+04 -2.33327E+04 -6.56936E+03 -8.76522E+03 -3.77445E+04
  2.50197E+04 -4.67196E+04  5.23554E+04 -2.05820E+04  4.86983E+04  2.02668E+04  1.69665E+04  4.69022E+04
 -1.64913E+04  3.58107E+04 -2.78701E+04  1.74250E+03 -1.15510E+04 -2.92321E+04  2.16733E+04 -3.61690E+04
  4.46783E+04 -1.06527E+04  4.05877E+04  2.53554E+04  2.19327E+04  5.09720E+04 -8.97177E+03  5.57570E+04
 -3.53428E+04  3.78444E+04 -4.74679E+04  1.05948E+04 -4.72990E+04 -1.88436E+04 -2.55577E+04 -4.18545E+04
  7.48955E+03 -4.26260E+04  3.41965E+04 -1.72604E+04  3.17470E+04  1.06016E+04  5.06836E+03  2.05858E+04
 -1.40848E+04  9.36321E+03 -1.13459E+04 -8.47472E+03  4.69589E+03 -1.10200E+04  1.87019E+04  6.17888E+03
  1.50049E+04  2.24077E+04 -4.98978E+03  2.71194E+04 -2.29804E+04  1.42871E+04 -3.21681E+04 -2.54739E+03
 -2.60170E+04 -1.86803E+04 -1.11274E+04 -2.51971E+04  4.88534E+03 -2.62355E+04  2.00550E+04 -2.21289E+04
  3.17428E+04 -1.47991E+04  3.77799E+04  4.87660E+03  2.60892E+04  2.41832E+04  5.22482E+03  4.06669E+04
 -1.95194E+04  3.38484E+04 -3.02996E+04  1.19685E+04 -2.17636E+04 -1.07879E+04 -4.82362E+03 -1.30494E+04
  7.31755E+02 -1.56995E+03 -7.89666E+03  7.21489E+03 -2.00077E+04  4.85841E+03 -1.96109E+04 -9.90751E+03
 -1.22940E+04 -2.29114E+04  6.66423E+03 -2.84665E+04  1.73668E+04 -2.01554E+04  2.23120E+04 -1.81161E+03
  1.45736E+04  1.64220E+04 -9.53236E+02  2.30840E+04 -1.64884E+04  1.31079E+04 -2.36460E+04 -5.02451E+03
 -1.73440E+04 -2.10480E+04 -1.62182E+03 -2.83306E+04  1.37108E+04 -2.39016E+04  2.28172E+04 -1.14073E+04
  2.15885E+04 -8.60806E+02  1.59346E+04  5.23401E+03  8.57558E+03  1.53851E+03  1.19945E+04 -2.46193E+03
  2.22715E+04  2.99569E+03  2.53529E+04  1.83418E+04  1.72872E+04  3.70798E+04 -3.06485E+03  4.43943E+04
 -2.54024E+04  3.74670E+04 -4.12384E+04  1.88604E+04 -4.51889E+04 -4.54339E+03 -3.63714E+04 -2.52335E+04
 -1.53479E+04 -3.69557E+04  1.31600E+04 -3.22159E+04  2.82361E+04 -1.50185E+04  2.36379E+04  8.76830E+03
  7.88300E+03  1.93816E+04 -1.20936E+04  1.50560E+04 -2.03306E+04  2.84796E+03 -1.51333E+04 -1.27977E+04
  1.20113E+01 -1.94780E+04  9.87892E+03 -1.35576E+04  1.32479E+04 -9.98265E+02  3.38504E+03  8.52030E+03
 -8.09411E+03  4.59149E+03 -7.58296E+03 -6.45810E+03 -1.72784E+03 -1.85357E+04  1.20098E+04 -2.00362E+04
  2.19070E+04 -1.15535E+04  2.52465E+04  4.02208E+03  2.33697E+04  1.86388E+04  1.06557E+04  2.94084E+04
 -5.20739E+03  3.06013E+04 -2.01671E+04  1.93606E+04 -2.16710E+04  3.15986E+03 -1.52498E+04 -5.14758E+03
 -6.53890E+03 -7.38824E+03 -6.74288E+02  4.23654E+02 -3.00935E+03  3.60390E+03 -7.45350E+03  5.50923E+03
 -1.36624E+04 -1.11750E+03 -1.54407E+04 -1.15274E+04 -5.95915E+03 -2.07618E+04  5.99681E+03 -1.57161E+04
  1.27893E+04 -6.03217E+03  9.51650E+03  5.01054E+03 -6.34314E+02  6.18143E+03 -8.17777E+03 -4.55797E+02
 -7.01927E+03 -9.74195E+03 -6.77290E+02 -1.56818E+04  9.37481E+03 -1.61359E+04  2.02472E+04 -8.70285E+03
  2.31916E+04  2.34871E+03  1.76020E+04  1.38044E+04  2.73856E+03  1.81863E+04 -9.79638E+03  1.52590E+04
 -1.21926E+04  4.41088E+03 -6.01162E+03 -3.80542E+03  1.85510E+03 -4.34558E+03  7.81047E+03 -1.12266E+03
  7.06091E+03  7.65142E+03  1.51984E+03  1.29324E+04 -8.97756E+03  1.19363E+04 -1.60157E+04  3.14886E+03
 -1.11701E+04 -8.25957E+03  3.41771E+02 -1.37409E+04  8.41851E+03 -6.98293E+03  9.26198E+03  2.73789E+03
  3.21310E+03  1.01110E+04 -7.69041E+03  1.20031E+04 -1.44125E+04  5.62144E+03 -1.41986E+04 -4.70599E+03
 -8.68368E+03 -1.64903E+04  4.13975E+03 -1.79435E+04  1.60345E+04 -1.11231E+04  1.72002E+04  3.54111E+03
  1.00346E+04  1.35341E+04 -1.67421E+03  1.56773E+04 -1.16522E+04  8.78487E+03 -1.34910E+04 -6.15471E+02
 -9.99743E+03 -1.00994E+04 -1.53794E+03 -1.24684E+04  6.16430E+03 -9.65894E+03  7.83113E+03 -3.78721E+03
  5.45786E+03  2.53897E+03 -7.62308E+02  2.06809E+03 -4.74618E+02 -3.37707E+03  3.46872E+03 -7.76954E+03
  1.13108E+04 -4.91931E+03  1.62647E+04  1.17283E+03  1.57033E+04  1.06936E+04  1.02416E+04  2.10557E+04
 -5.24841E+03  2.35050E+04 -1.97433E+04  1.73681E+04 -2.64143E+04  3.67141E+03 -2.10263E+04 -9.51539E+03
 -1.02088E+04 -1.73157E+04 -5.86072E+02 -1.42060E+04  5.69729E+03 -7.33466E+03  5.45913E+03 -5.66884E+03
  4.28947E+03 -2.93280E+03  4.26024E+03 -2.83281E+03  5.84663E+03 -2.87479E+03  7.97067E+03 -1.56410E+03
  1.11205E+04  2.23954E+03  5.94597E+03  9.26479E+03 -2.59852E+03  1.11536E+04 -1.09263E+04  8.71398E+03
 -1.48316E+04 -2.30618E+03 -9.03999E+03 -1.01047E+04 -4.93700E+02 -1.53074E+04  7.92504E+03 -1.54842E+04
  1.65403E+04 -9.28291E+03  1.99418E+04  2.46660E+03  1.39272E+04  1.34955E+04  2.84411E+03  1.69852E+04
 -7.52055E+03  1.49882E+04 -1.09244E+04  4.95040E+03 -7.95151E+03 -1.28156E+03 -2.91869E+03 -2.02884E+03
 -1.41827E+03 -5.75364E+02 -2.08906E+03  2.66383E+03 -6.73923E+03  2.68291E+03 -9.59828E+03 -1.79502E+03
 -7.44167E+03 -1.07667E+04  5.11127E+02 -1.47963E+04  9.44383E+03 -1.43518E+04  1.54593E+04 -4.61200E+03
  1.43109E+04  7.21507E+03  5.86245E+03  1.31526E+04 -3.27271E+03  1.44700E+04 -1.02478E+04  8.52984E+03
 -1.39634E+04  1.39410E+03 -1.06583E+04 -9.42453E+03 -1.31380E+03 -1.20491E+04  6.45204E+03 -9.40874E+03
  8.82734E+03 -2.90865E+03  6.94706E+03  2.69873E+03  2.55096E+03  4.60357E+03  1.21440E+03  2.43030E+03
  2.68516E+03  1.01077E+03  3.54939E+03  1.99765E+03  4.50965E+03  4.87289E+03  4.04226E+03  7.83192E+03
 -2.91588E+03  1.18789E+04 -1.08119E+04  1.16786E+04 -1.61250E+04  2.37419E+03 -1.53882E+04 -6.42413E+03
 -8.14054E+03 -1.55605E+04  1.80957E+03 -1.67845E+04  8.68978E+03 -1.05867E+04  1.18467E+04 -2.84074E+03
  9.23891E+03  5.92392E+03  1.67202E+03  8.79136E+03 -4.18950E+03  5.89930E+03 -5.22779E+03 -1.27189E+03
 -2.97766E+03 -6.34169E+03  2.83242E+03 -7.47560E+03  6.70477E+03 -3.30100E+03  6.77303E+03  8.52288E+02
  3.02252E+03  2.54152E+03  1.02723E+03  2.86275E+03 -4.33578E+02  2.93191E+03  2.35555E+03 -1.29765E+03
  2.22762E+03 -4.63685E+02  6.56452E+03  2.35473E+03  3.03430E+03  7.80982E+03 -1.26998E+03  1.03748E+04
 -8.24018E+03  7.05203E+03 -1.03357E+04  1.14758E+03 -7.94683E+03 -3.82468E+03 -2.96345E+03 -5.91137E+03
  1.16316E+03 -5.72414E+03  3.43892E+03 -2.93442E+03  3.16609E+03  3.59365E+03 -1.89362E+03  5.13762E+03
 -6.63572E+03  3.14043E+03 -6.80507E+03 -3.77130E+03 -4.70266E+03 -8.77356E+03  2.47774E+03 -8.70429E+03
  5.03071E+03 -4.89044E+03  6.80073E+03 -5.41942E+02  5.67815E+03  1.97779E+03  5.18699E+02  4.43766E+03
 -3.37381E+03  1.29517E+03 -3.93947E+03 -2.31382E+03  5.42067E+02 -6.70478E+03  7.90694E+03 -4.87424E+03
  9.53829E+03  1.18006E+03  9.29065E+03  6.28552E+03  2.35953E+03  1.02499E+04 -3.68156E+03  9.51962E+03
 -8.54689E+03  3.73077E+03 -9.06341E+03 -1.19248E+03 -4.27744E+03 -6.27315E+03  1.73598E+03 -5.69784E+03
  5.39558E+03 -3.48939E+03  5.22238E+03  2.23879E+03  2.07651E+03  5.75739E+03 -8.15975E+02  5.25503E+03
 -2.75183E+03  3.07565E+03 -2.71932E+03  1.36918E+02 -1.19041E+03  5.16339E+02 -1.86059E+03  1.47814E+03
 -2.48783E+03  4.07348E+03 -7.73871E+03  3.94724E+03 -9.56394E+03  2.04023E+02 -1.08839E+04 -7.21085E+03
 -5.83891E+03 -1.38038E+04  2.40370E+03 -1.55131E+04  1.00471E+04 -1.22876E+04  1.45775E+04 -4.81196E+03
  1.35399E+04  3.22176E+03  9.20967E+03  9.08545E+03  6.54256E+02  1.09852E+04 -4.09369E+03  7.31403E+03
 -5.85984E+03  3.39869E+03 -3.37538E+03 -2.08119E+03 -1.17301E+03 -1.13890E+03 -4.34558E+02  1.36069E+02
 -1.37143E+03  4.15075E+02 -1.70906E+03 -8.25442E+02 -8.77862E+02 -2.57831E+03 -1.17538E+02 -3.85241E+03
  4.91716E+03 -2.86824E+03  6.27884E+03 -1.88425E+02  7.23195E+03  6.04811E+03  1.56578E+03  1.08889E+04
 -5.69423E+03  1.18357E+04 -1.03593E+04  6.47534E+03 -1.19615E+04 -9.72516E+02 -9.77660E+03 -8.36687E+03
 -3.43666E+03 -1.06105E+04  3.48368E+03 -1.00713E+04  7.29394E+03 -5.92918E+03  6.91342E+03  8.50117E+02
  4.44178E+03  3.48388E+03 -6.68612E+02  4.02615E+03 -1.56248E+03 -9.04505E+02 -3.77468E+02 -2.93754E+03
  2.83622E+03 -7.20101E+02  4.48668E+03  1.97807E+03  2.23330E+03  4.02693E+03  1.19846E+02  5.58537E+03
 -4.57892E+03  4.34951E+03 -8.04200E+03  4.53621E+02 -6.16717E+03 -5.16416E+03 -1.35973E+03 -8.52578E+03
  4.57421E+03 -7.85960E+03  7.96056E+03 -2.30208E+03  7.93375E+03  1.27152E+03  4.94134E+03  6.76421E+03
  3.93547E+02  6.48950E+03 -3.44443E+03  6.07571E+03 -4.69534E+03  2.30609E+03 -3.60320E+03 -2.07697E+02
 -1.89654E+03  1.62454E+02 -1.38149E+03  1.28918E+03 -3.98505E+03  5.73651E+02 -4.67290E+03 -8.33805E+02
 -4.86396E+03 -3.79672E+03 -2.40977E+03 -7.81178E+03  3.06035E+03 -7.66547E+03  6.30803E+03 -3.30109E+03
  6.38420E+03  1.22305E+03  3.31648E+03  4.81276E+03 -9.84227E+02  7.10846E+03 -5.16443E+03  3.94717E+03
