 $NMID ID='MM_0lb_SNR400_16hz_g55_79.RAW', FMTDAT='(8E13.5)'
 TRAMP=1., VOLUME=1. $END
  3.09701E+05  3.76683E+02  3.37459E+05  2.50495E+05  8.49469E+04  3.37678E+05 -1.32442E+05  2.50891E+05
 -1.89903E+05  8.27250E+04 -1.11735E+05 -3.26615E+04  9.61405E+02 -5.03965E+04  5.36063E+04 -1.05279E+03
  3.54399E+04  5.23279E+04 -1.65516E+04  7.53491E+04 -6.00580E+04  6.37374E+04 -8.34602E+04  3.21684E+04
 -8.09872E+04 -1.14486E+04 -5.74063E+04 -5.15759E+04 -1.44845E+04 -6.89960E+04  2.72904E+04 -4.55683E+04
  3.97786E+04  3.74314E+03  1.58419E+04  4.76772E+04 -3.41686E+04  4.73583E+04 -6.62673E+04 -4.84601E+02
 -5.35477E+04 -5.65808E+04 -6.80730E+03 -7.67899E+04  3.35809E+04 -5.45113E+04  4.75489E+04 -1.67214E+04
  4.29766E+04  1.13797E+04  3.16663E+04  2.58182E+04  1.56492E+04  2.94287E+04 -4.86462E+03  2.70805E+04
 -2.18506E+04  1.26573E+04 -1.83672E+04 -5.39681E+03  5.63275E+03 -7.98000E+03  2.14968E+04  1.16791E+04
  6.45148E+03  3.45477E+04 -3.14714E+04  3.53853E+04 -6.30259E+04  1.96240E+03 -5.62530E+04 -4.26424E+04
 -1.21870E+04 -6.28447E+04  4.00375E+04 -4.48262E+04  5.78930E+04 -1.82321E+03  3.36267E+04  3.16633E+04
 -5.77557E+03  3.59090E+04 -2.96201E+04  1.48094E+04 -2.96624E+04 -4.92951E+03 -1.60327E+04 -1.00470E+04
 -8.62087E+03 -1.28356E+04 -5.20890E+02 -1.78765E+04  7.58957E+03 -2.31532E+04  1.57111E+04 -1.34247E+04
  1.16738E+04  5.10181E+03 -8.12869E+03  1.32581E+04 -2.09342E+04 -4.36882E+03 -7.78284E+03 -3.29508E+04
  2.20782E+04 -4.28038E+04  4.72996E+04 -1.98976E+04  4.45590E+04  1.91326E+04  1.57053E+04  4.31692E+04
 -1.54868E+04  3.31412E+04 -2.55415E+04  2.10124E+03 -9.46255E+03 -2.72059E+04  2.10435E+04 -3.31333E+04
  4.05822E+04 -8.80859E+03  3.48400E+04  2.37778E+04  1.74104E+04  4.59697E+04 -8.40719E+03  4.87073E+04
 -3.09537E+04  3.30010E+04 -4.07379E+04  9.14473E+03 -4.20174E+04 -1.61406E+04 -2.39714E+04 -3.68231E+04
  7.13060E+03 -3.67819E+04  3.07673E+04 -1.42790E+04  2.89654E+04  1.04989E+04  3.97137E+03  1.86225E+04
 -1.37110E+04  7.10907E+03 -1.07286E+04 -7.65715E+03  6.20316E+03 -9.91556E+03  1.82386E+04  5.52658E+03
  1.31519E+04  2.14778E+04 -5.48997E+03  2.43795E+04 -2.20139E+04  1.08872E+04 -2.70049E+04 -5.43776E+03
 -1.92123E+04 -1.75668E+04 -7.71267E+03 -2.00238E+04  4.29193E+03 -1.79760E+04  1.44529E+04 -1.73906E+04
  2.48644E+04 -1.19233E+04  3.11331E+04  1.94068E+03  2.35358E+04  1.91293E+04  4.06814E+03  3.54716E+04
 -1.68827E+04  2.95216E+04 -2.75857E+04  1.04938E+04 -2.01421E+04 -1.03780E+04 -4.90305E+03 -1.35827E+04
  1.41899E+03 -3.16389E+03 -3.54194E+03  5.96415E+03 -1.50094E+04  5.10266E+03 -1.60777E+04 -6.43265E+03
 -9.56398E+03 -1.83925E+04  4.50126E+03 -2.19612E+04  1.45699E+04 -1.56657E+04  1.73085E+04 -1.21479E+03
  1.10638E+04  1.25754E+04 -7.93883E+02  1.82607E+04 -1.30326E+04  1.07055E+04 -1.79519E+04 -3.99724E+03
 -1.28309E+04 -1.68580E+04 -1.55540E+03 -2.22776E+04  9.86755E+03 -1.81422E+04  1.83547E+04 -9.27154E+03
  1.68052E+04  2.96965E+00  1.22869E+04  4.02553E+03  6.42107E+03  1.26100E+03  9.25324E+03 -1.24851E+03
  1.62364E+04  2.91106E+03  1.80381E+04  1.43644E+04  1.18537E+04  2.89369E+04 -3.09538E+03  3.22396E+04
 -1.85005E+04  2.59347E+04 -2.97953E+04  1.21135E+04 -3.07011E+04 -1.93280E+03 -2.56741E+04 -1.78869E+04
 -1.13905E+04 -2.55933E+04  8.56378E+03 -2.36320E+04  2.03350E+04 -1.24492E+04  1.83533E+04  5.18834E+03
  6.89979E+03  1.37069E+04 -8.38866E+03  1.16196E+04 -1.53864E+04  2.33393E+03 -1.16375E+04 -9.79574E+03
 -4.28108E+02 -1.41033E+04  7.28613E+03 -1.03694E+04  9.29414E+03 -1.36660E+03  1.85813E+03  6.21516E+03
 -6.52760E+03  2.17132E+03 -5.02288E+03 -5.46927E+03 -5.19665E+02 -1.22628E+04  8.82447E+03 -1.30564E+04
  1.56033E+04 -6.50192E+03  1.62788E+04  2.53641E+03  1.39407E+04  1.21947E+04  6.17628E+03  1.82943E+04
 -2.81219E+03  2.00042E+04 -1.27029E+04  1.30205E+04 -1.46917E+04  3.21517E+03 -1.01653E+04 -3.39557E+03
 -4.80405E+03 -4.38688E+03 -5.10762E+02  1.00155E+03 -2.57345E+03  1.95657E+03 -4.59454E+03  3.90391E+03
 -9.36559E+03 -4.50269E+02 -1.05168E+04 -8.69282E+03 -4.73099E+03 -1.36882E+04  4.47055E+03 -9.85279E+03
  9.17496E+03 -4.42857E+03  5.79973E+03  2.63238E+03  7.57330E+02  3.41625E+03 -5.05308E+03  1.31057E+02
 -4.62935E+03 -6.28800E+03 -9.12491E+02 -9.08368E+03  5.30525E+03 -1.03051E+04  1.22476E+04 -5.43475E+03
  1.50216E+04  1.18045E+03  1.03792E+04  8.33584E+03  2.14405E+03  1.11164E+04 -6.19757E+03  1.02428E+04
 -8.26040E+03  2.87822E+03 -4.26285E+03 -1.62357E+03  1.35563E+03 -2.62477E+03  6.26708E+03 -5.24738E+02
  5.50711E+03  4.38270E+03  1.57951E+03  7.62335E+03 -5.72423E+03  8.27217E+03 -9.41816E+03  1.74586E+03
 -6.34337E+03 -4.54958E+03  7.25298E+02 -7.97158E+03  4.89488E+03 -4.09524E+03  5.06671E+03  1.95045E+03
  1.50797E+03  4.55255E+03 -4.97141E+03  6.48830E+03 -7.12479E+03  3.43346E+03 -7.02763E+03 -2.01649E+03
 -4.33332E+03 -8.01183E+03  2.31787E+03 -9.65530E+03  8.54923E+03 -6.37862E+03  9.27833E+03  1.41924E+03
  5.68841E+03  7.39829E+03 -4.52145E+02  8.80820E+03 -6.86296E+03  5.02004E+03 -6.84087E+03 -1.20115E+02
 -7.46616E+03 -6.40975E+03 -1.07593E+03 -6.83559E+03  2.89127E+03 -5.83292E+03  3.92318E+03 -2.92729E+03
  3.14342E+03  9.80178E+02  3.30650E+01  1.48198E+03  3.51964E+02 -8.60007E+02  4.49336E+02 -3.16357E+03
  6.40979E+03 -1.11609E+03  7.98417E+03  9.66751E+02  8.09262E+03  5.27955E+03  6.31634E+03  1.06373E+04
 -2.30526E+03  1.15576E+04 -1.03799E+04  9.15709E+03 -1.27601E+04  1.79480E+03 -1.11577E+04 -3.81899E+03
 -5.85184E+03 -8.94049E+03 -1.81475E+02 -6.75491E+03  3.09982E+03 -3.25667E+03  2.87317E+03 -2.96233E+03
  1.95446E+03 -2.11317E+03  2.39111E+03 -3.25292E+03  3.95941E+03 -2.04318E+03  3.93394E+03  2.46706E+02
  6.04026E+03  1.88214E+03  2.36195E+03  4.33137E+03 -1.13626E+03  4.21303E+03 -5.73294E+03  3.81102E+03
 -6.55158E+03 -1.45210E+03 -3.21407E+03 -4.71664E+03  2.37320E+02 -7.43520E+03  3.60429E+03 -7.07232E+03
  7.40468E+03 -4.48114E+03  9.28745E+03  6.37160E+02  6.83191E+03  6.38001E+03  1.06999E+03  8.61319E+03
 -2.98351E+03  7.52825E+03 -4.81786E+03  2.06740E+03 -2.99854E+03 -1.37438E+03 -2.42504E+02 -2.90714E+02
 -5.68567E+02  4.30180E+02 -1.05604E+03  2.72405E+03 -2.69662E+03  1.91334E+03 -5.68369E+03 -9.26271E+02
 -2.36276E+03 -5.63960E+03  4.71331E+02 -6.04202E+03  4.13388E+03 -6.17548E+03  6.20415E+03 -1.25830E+03
  6.55817E+03  3.57703E+03  2.78492E+03  5.34074E+03 -1.88883E+03  6.42977E+03 -4.26709E+03  3.74963E+03
 -5.09263E+03  6.94808E+02 -4.31429E+03 -3.10946E+03 -3.37190E+02 -4.86778E+03  2.81393E+03 -3.97044E+03
  4.19426E+03 -1.25075E+03  3.10124E+03  9.42897E+02  8.30357E+02  2.58832E+03  9.73191E+02  1.19916E+03
  1.75584E+03  1.07742E+03  1.31953E+03  9.59729E+02  2.33983E+03  2.42137E+03  1.68996E+03  3.18432E+03
 -1.48038E+03  5.03643E+03 -4.12860E+03  5.32639E+03 -4.98937E+03  1.84285E+03 -6.06822E+03 -1.25144E+03
 -3.00442E+03 -5.32767E+03  4.52956E+02 -6.92039E+03  3.06178E+03 -3.36660E+03  4.63371E+03 -1.25562E+03
  3.48546E+03  2.52501E+03  8.48042E+02  3.65739E+03 -8.86082E+02  1.79883E+03 -2.03768E+03 -2.11329E+02
 -1.20688E+03 -2.16958E+03  1.36431E+03 -2.52856E+03  2.24871E+03 -1.77989E+03  1.89823E+03  6.62060E+02
  1.52281E+03  6.81157E+02  8.04149E+02  3.46509E+02 -6.99507E+02  6.45848E+02  1.38352E+03 -1.87161E+02
  8.68948E+02 -4.87257E+02  2.74981E+03  8.03968E+02  1.36207E+03  2.81769E+03 -7.68271E+02  3.93752E+03
 -3.18678E+03  2.43464E+03 -3.44584E+03  5.31726E+02 -3.94389E+03 -1.00167E+03 -6.36975E+02 -1.27676E+03
  4.84791E+02 -2.57603E+03  1.86533E+03 -1.00075E+03  8.09763E+02  1.77188E+03 -6.69150E+02  1.50325E+03
 -2.48584E+03  8.57954E+02 -1.74056E+03 -1.77392E+03 -1.52036E+03 -2.76668E+03  4.36984E+02 -2.22445E+03
  1.12398E+03 -1.18769E+03  1.85856E+03  7.33686E+01  2.00969E+03 -3.32526E+02  3.50291E+02  1.53563E+03
 -8.58665E+02  4.17806E+02 -1.40821E+03 -6.92494E+02  8.57600E+02 -1.69123E+03  2.60889E+03 -1.73011E+03
  2.49136E+03  2.30820E+02  3.75976E+03  2.13354E+03  8.77968E+02  2.34611E+03 -8.63423E+01  2.60371E+03
 -2.04874E+03  7.89096E+02 -2.16931E+03  3.37772E+01 -1.40754E+03 -2.37472E+03  3.53523E+02 -1.36810E+03
  2.23639E+03 -1.07654E+03  8.85500E+02  3.85737E+02  5.43943E+02  2.37782E+03 -1.28121E+02  1.11360E+03
 -9.24995E+02  1.44626E+03 -1.01711E+03  4.64290E+02  4.22222E+01  2.02281E+02 -5.16441E+02  7.53205E+02
 -9.40711E+02  1.48526E+03 -2.55318E+03  8.48321E+01 -2.66289E+03  5.10400E+02 -3.52111E+03 -1.50283E+03
 -1.82845E+03 -4.26890E+03  7.52269E+02 -4.49614E+03  1.64958E+03 -4.24463E+03  4.34246E+03 -1.25969E+03
  4.23706E+03 -7.05050E+01  1.88331E+03  2.31896E+03 -3.88297E+02  2.84704E+03 -1.31918E+03  1.65484E+03
 -2.16132E+03  1.06368E+03 -1.05425E+03  3.62889E+02 -4.44560E+02 -6.90707E+02 -4.19514E+02  1.85409E+02
 -1.36628E+03 -2.20860E+01 -8.75388E+02  4.04544E+02  1.41638E+02 -9.98509E+01 -1.76022E+02 -6.71285E+02
  2.16606E+03 -7.79108E+02  7.63092E+02 -1.19192E+02  2.00419E+03  1.68454E+03 -1.10047E+02  2.72058E+03
 -1.48438E+03  3.51723E+03 -3.12643E+03  2.19852E+03 -3.02953E+03 -8.73173E+02 -2.23635E+03 -1.91448E+03
 -1.47898E+03 -2.49781E+03  7.79748E+02 -1.76191E+03  1.72803E+03 -1.00333E+03  1.24421E+03  2.88088E+02
  7.46113E+02  6.21941E+02  3.46155E+02  5.51020E+02 -1.73337E+02  2.46522E+02  1.24532E+02 -2.35038E+02
  6.98964E+02 -3.63789E+02  9.02300E+02  3.55093E+02  7.22484E+02  1.38138E+03  6.40860E+02  5.58052E+02
 -1.09312E+03  8.45498E+02 -7.38471E+02  3.43316E+02 -1.10579E+03 -5.27452E+02 -2.43851E+01 -2.10946E+03
  1.03680E+03 -1.69791E+03  1.70239E+03 -3.72208E+02  2.11026E+03 -9.56579E+02  8.16050E+02  1.42765E+03
  3.96609E+02  1.10700E+03  3.51761E+02  8.53059E+02 -8.34415E+02  1.15033E+03 -1.07047E+03 -7.48434E+01
 -8.74196E+01  5.32466E+02 -1.19693E+03  2.98204E+02 -1.08869E+03  3.08442E+02 -1.21988E+03  6.66176E+01
 -1.36986E+03  2.26890E+02 -7.84031E+02 -1.66688E+03  7.88588E+02 -2.05609E+03  1.31708E+03 -1.35122E+03
  1.64686E+03  8.43520E+01 -8.98242E+01  6.88693E+02 -4.19741E+02  1.51802E+03 -1.07121E+03  7.63752E+02
