 $NMID ID='MM_0lb_SNR400_7hz_g40_19.RAW', FMTDAT='(8E13.5)'
 TRAMP=1., VOLUME=1. $END
  3.09751E+05  6.00497E+02  3.38974E+05  2.50497E+05  8.51376E+04  3.38583E+05 -1.32723E+05  2.50882E+05
 -1.91581E+05  8.45535E+04 -1.12865E+05 -3.20863E+04  3.12098E+01 -5.07672E+04  5.41512E+04  2.13123E+02
  3.60333E+04  5.18601E+04 -1.57456E+04  7.58679E+04 -6.17797E+04  6.45580E+04 -8.58760E+04  3.25518E+04
 -8.30016E+04 -1.14249E+04 -5.88266E+04 -5.22002E+04 -1.49380E+04 -7.10744E+04  2.77772E+04 -4.65979E+04
  4.12699E+04  4.04816E+03  1.68898E+04  4.84827E+04 -3.43192E+04  4.79223E+04 -6.87436E+04  5.47376E+02
 -5.57651E+04 -5.73706E+04 -7.56535E+03 -8.02840E+04  3.45393E+04 -5.68317E+04  4.91585E+04 -1.90320E+04
  4.53431E+04  1.25011E+04  3.33307E+04  2.57915E+04  1.60922E+04  3.12359E+04 -5.77482E+03  2.73303E+04
 -2.26780E+04  1.16990E+04 -1.70243E+04 -5.96689E+03  7.81045E+03 -8.20935E+03  2.37132E+04  1.55273E+04
  7.26728E+03  3.83518E+04 -3.43447E+04  3.79274E+04 -6.67351E+04  3.10604E+03 -5.93024E+04 -4.46357E+04
 -1.23032E+04 -6.62717E+04  4.17528E+04 -4.79204E+04  6.19699E+04 -1.98633E+03  3.74095E+04  3.44068E+04
 -5.65767E+03  4.07116E+04 -3.19413E+04  1.95469E+04 -3.41093E+04 -4.51914E+03 -1.97548E+04 -1.22183E+04
 -1.03080E+04 -1.56887E+04 -1.42909E+02 -1.97616E+04  8.62051E+03 -2.38895E+04  1.58023E+04 -1.16935E+04
  1.06958E+04  6.68411E+03 -1.01166E+04  1.30045E+04 -2.43711E+04 -7.20006E+03 -8.67458E+03 -3.76993E+04
  2.53870E+04 -4.76299E+04  5.24628E+04 -2.08457E+04  4.93366E+04  2.09577E+04  1.79843E+04  4.79576E+04
 -1.62672E+04  3.71982E+04 -2.83296E+04  2.26162E+03 -1.12771E+04 -2.93383E+04  2.12162E+04 -3.81903E+04
  4.56512E+04 -1.17951E+04  4.17404E+04  2.45628E+04  2.20072E+04  5.16213E+04 -8.79343E+03  5.77692E+04
 -3.61623E+04  4.01194E+04 -4.90921E+04  1.07464E+04 -4.81564E+04 -1.77323E+04 -2.61855E+04 -4.31362E+04
  7.25178E+03 -4.37422E+04  3.43926E+04 -1.76100E+04  3.21638E+04  1.10502E+04  5.28944E+03  2.17830E+04
 -1.40300E+04  1.03300E+04 -1.13101E+04 -7.72566E+03  5.28456E+03 -1.18880E+04  1.90378E+04  5.40433E+03
  1.47389E+04  2.24226E+04 -4.16623E+03  2.75216E+04 -2.30053E+04  1.62091E+04 -3.24453E+04 -2.92591E+03
 -2.68974E+04 -1.87599E+04 -1.25861E+04 -2.60139E+04  3.84781E+03 -2.84370E+04  2.12409E+04 -2.44937E+04
  3.46136E+04 -1.58013E+04  3.94002E+04  5.10484E+03  2.75291E+04  2.64477E+04  4.45403E+03  4.24214E+04
 -2.12871E+04  3.39124E+04 -3.15069E+04  1.23944E+04 -2.36198E+04 -1.01883E+04 -4.15850E+03 -1.19927E+04
  4.80227E+02 -5.04969E+02 -9.33138E+03  9.31651E+03 -2.14379E+04  5.57067E+03 -2.12845E+04 -9.69644E+03
 -1.20401E+04 -2.50342E+04  6.23194E+03 -2.93402E+04  1.99279E+04 -2.06486E+04  2.35860E+04 -1.88042E+03
  1.49452E+04  1.69386E+04 -1.62156E+03  2.41819E+04 -1.70636E+04  1.44612E+04 -2.55761E+04 -5.00482E+03
 -1.84951E+04 -2.22035E+04 -2.25440E+03 -2.99248E+04  1.26134E+04 -2.45896E+04  2.44166E+04 -1.23921E+04
  2.40602E+04 -1.33960E+03  1.69673E+04  5.19099E+03  8.71942E+03  9.44666E+02  1.27340E+04 -1.68987E+03
  2.29994E+04  3.32893E+03  2.75448E+04  1.94012E+04  1.93030E+04  3.85793E+04 -3.02097E+03  4.65814E+04
 -2.75229E+04  3.88041E+04 -4.42270E+04  1.99562E+04 -4.78214E+04 -4.00388E+03 -3.77502E+04 -2.74508E+04
 -1.55953E+04 -3.94671E+04  1.47218E+04 -3.48418E+04  2.96969E+04 -1.57014E+04  2.52710E+04  8.89759E+03
  7.89528E+03  2.03993E+04 -1.17691E+04  1.67331E+04 -2.09734E+04  1.82214E+03 -1.53617E+04 -1.43525E+04
 -7.58099E+02 -2.04901E+04  1.11328E+04 -1.54250E+04  1.47215E+04 -1.08179E+03  3.53477E+03  9.00347E+03
 -1.01808E+04  3.96421E+03 -1.03100E+04 -6.54230E+03 -2.46265E+03 -1.89492E+04  1.33394E+04 -2.23076E+04
  2.41548E+04 -1.28355E+04  2.93176E+04  3.29013E+03  2.53003E+04  1.95877E+04  1.14877E+04  3.24095E+04
 -6.73762E+03  3.32783E+04 -2.23953E+04  2.14919E+04 -2.53136E+04  4.23475E+03 -1.67170E+04 -6.36142E+03
 -7.08238E+03 -7.62070E+03 -6.57545E+02 -3.92752E+01 -3.77897E+03  3.55457E+03 -8.24983E+03  6.92302E+03
 -1.53464E+04 -9.14607E+02 -1.50679E+04 -1.21312E+04 -6.30857E+03 -1.99023E+04  6.53110E+03 -1.72786E+04
  1.40696E+04 -7.54918E+03  1.04663E+04  3.93134E+03 -7.63330E+02  6.05192E+03 -8.68352E+03  5.07393E+02
 -8.50447E+03 -1.01674E+04 -1.13122E+03 -1.73107E+04  1.12125E+04 -1.88741E+04  2.26015E+04 -9.44557E+03
  2.55311E+04  2.66497E+03  1.78651E+04  1.56723E+04  3.89682E+03  2.12763E+04 -1.08736E+04  1.59417E+04
 -1.34229E+04  4.97582E+03 -7.58301E+03 -3.25990E+03  1.93969E+03 -4.55418E+03  9.25776E+03 -4.37623E+02
  8.77583E+03  7.21404E+03  1.80712E+03  1.36764E+04 -1.02355E+04  1.29719E+04 -1.67730E+04  2.42157E+03
 -1.19528E+04 -8.99757E+03  8.24827E+02 -1.51802E+04  9.75812E+03 -7.41027E+03  1.09632E+04  3.60702E+03
  1.93929E+03  1.13439E+04 -8.85037E+03  1.32025E+04 -1.52092E+04  6.36469E+03 -1.54525E+04 -5.72913E+03
 -9.50171E+03 -1.80284E+04  4.53870E+03 -2.02828E+04  1.73606E+04 -1.26767E+04  1.86123E+04  3.85722E+03
  1.09831E+04  1.53639E+04 -1.26938E+03  1.72849E+04 -1.25203E+04  1.01764E+04 -1.49961E+04 -8.71976E+02
 -1.21906E+04 -1.23115E+04 -2.55165E+03 -1.30699E+04  8.58570E+03 -1.06663E+04  9.24017E+03 -3.83728E+03
  5.53079E+03  2.75138E+03 -1.20865E+03  2.44776E+03 -1.84460E+03 -4.10782E+03  3.64558E+03 -8.69912E+03
  1.25670E+04 -6.72398E+03  1.87647E+04  1.27323E+03  1.81906E+04  1.26471E+04  1.14641E+04  2.42773E+04
 -6.19707E+03  2.69404E+04 -2.28881E+04  2.03000E+04 -2.93969E+04  3.78154E+03 -2.41283E+04 -1.08198E+04
 -1.17388E+04 -1.90684E+04  1.06509E+02 -1.72403E+04  6.38148E+03 -8.72913E+03  5.53004E+03 -6.89225E+03
  4.31881E+03 -4.15813E+03  4.36303E+03 -5.18264E+03  6.03045E+03 -3.95246E+03  9.27223E+03 -1.90193E+03
  1.20135E+04  2.88917E+03  7.04929E+03  1.09437E+04 -2.51204E+03  1.39100E+04 -1.33313E+04  1.00189E+04
 -1.76235E+04 -9.27365E+02 -1.13760E+04 -1.22251E+04 -9.18359E+02 -1.84933E+04  1.03190E+04 -1.88785E+04
  1.92001E+04 -9.40291E+03  2.29764E+04  3.03229E+03  1.60677E+04  1.50891E+04  2.20849E+03  2.04921E+04
 -9.83214E+03  1.61817E+04 -1.28757E+04  5.73575E+03 -8.26605E+03 -1.89502E+03 -3.19060E+03 -2.19897E+03
 -1.37271E+03 -2.68194E+02 -2.95281E+03  3.98976E+03 -6.84003E+03  2.44223E+03 -1.18119E+04 -1.57577E+03
 -9.99165E+03 -1.17140E+04 -9.88303E+02 -1.64428E+04  1.00999E+04 -1.56925E+04  1.74216E+04 -5.46138E+03
  1.77150E+04  8.45087E+03  8.08175E+03  1.53126E+04 -3.60796E+03  1.75009E+04 -1.24299E+04  1.10189E+04
 -1.63958E+04  5.30287E+02 -1.33115E+04 -9.89920E+03 -1.91251E+03 -1.60664E+04  8.06727E+03 -1.12677E+04
  1.12377E+04 -3.20260E+03  7.63529E+03  2.89362E+03  3.38979E+03  3.64105E+03  7.56224E+02  2.47380E+03
  2.75619E+03  1.84329E+03  3.52384E+03  2.38444E+03  5.36320E+03  5.67682E+03  4.96981E+03  9.71969E+03
 -4.14977E+03  1.54503E+04 -1.23491E+04  1.41981E+04 -1.97644E+04  4.81078E+03 -1.86002E+04 -8.21714E+03
 -8.44550E+03 -1.84649E+04  3.24216E+03 -2.02846E+04  1.16656E+04 -1.35843E+04  1.49785E+04 -3.43201E+03
  1.14366E+04  6.87163E+03  3.69101E+03  1.10086E+04 -5.78704E+03  7.32482E+03 -8.31921E+03 -1.34779E+03
 -4.26543E+03 -6.79133E+03  3.73423E+03 -9.01167E+03  7.88477E+03 -4.50048E+03  7.78771E+03  1.40788E+03
  5.09816E+03  3.92378E+03  1.02203E+03  3.79361E+03 -4.10973E+02  2.49809E+03  1.15572E+03 -1.00071E+03
  2.68392E+03 -3.68757E+02  7.07252E+03  2.80363E+03  4.80997E+03  9.07124E+03 -2.33539E+03  1.31584E+04
 -9.11603E+03  9.39679E+03 -1.20779E+04  1.75654E+03 -1.03432E+04 -4.10782E+03 -4.29277E+03 -6.79958E+03
  1.63725E+03 -7.69383E+03  3.74533E+03 -3.73675E+03  4.28577E+03  3.74356E+03 -1.46976E+03  5.65934E+03
 -7.95016E+03  3.67543E+03 -8.56318E+03 -4.25088E+03 -5.74733E+03 -1.05028E+04  1.16167E+03 -1.05287E+04
  5.42595E+03 -5.97105E+03  8.25032E+03 -1.69401E+03  5.84871E+03  2.58926E+03  7.36034E+02  5.95201E+03
 -3.79993E+03  9.43498E+02 -5.57260E+03 -4.55479E+03  1.81804E+03 -8.00783E+03  9.76926E+03 -6.91882E+03
  1.27301E+04  5.98030E+02  1.23032E+04  8.34095E+03  3.58821E+03  1.32183E+04 -4.60343E+03  1.27399E+04
 -1.01270E+04  5.67330E+03 -9.77064E+03 -8.23668E+02 -5.47981E+03 -8.21524E+03  2.12556E+03 -8.33384E+03
  7.91979E+03 -3.84873E+03  7.01687E+03  3.65373E+03  2.70581E+03  7.40918E+03 -1.26999E+03  5.62694E+03
 -3.31586E+03  3.53737E+03 -3.16806E+03  7.77703E+02 -1.97018E+03  1.51177E+03 -2.49517E+03  3.74784E+03
 -2.74215E+03  4.87628E+03 -8.66895E+03  4.59353E+03 -1.38575E+04  5.39098E+01 -1.55040E+04 -7.48792E+03
 -7.34474E+03 -1.73997E+04  3.81951E+03 -1.94712E+04  1.23671E+04 -1.63083E+04  1.81537E+04 -6.21957E+03
  1.61429E+04  4.06207E+03  1.13927E+04  1.20565E+04  1.60104E+03  1.36814E+04 -5.73088E+03  9.76999E+03
 -7.33245E+03  3.71477E+03 -5.31751E+03 -1.84362E+03 -5.94854E+02 -1.57016E+03  2.49091E+02 -9.33605E+02
 -2.64543E+03  1.52684E+03 -3.48187E+03 -6.13115E+02 -1.16391E+03 -3.06634E+03  1.19385E+03 -5.72575E+03
  6.24731E+03 -4.22687E+03  8.30935E+03  1.03065E+03  9.73768E+03  7.32476E+03  3.04160E+03  1.36775E+04
 -6.37312E+03  1.52875E+04 -1.37401E+04  9.11438E+03 -1.74195E+04 -1.07513E+03 -1.29501E+04 -1.02577E+04
 -4.76763E+03 -1.48575E+04  3.47042E+03 -1.34333E+04  9.01642E+03 -7.54955E+03  9.57852E+03  7.10651E+02
  4.23034E+03  4.46599E+03 -8.31224E+02  4.03256E+03 -2.18122E+03 -5.12351E+02  8.15448E+01 -3.49436E+03
  4.42603E+03 -1.22950E+03  6.27162E+03  1.18390E+03  4.17533E+03  5.02489E+03  8.65276E+02  9.11608E+03
 -5.79636E+03  6.28936E+03 -1.02031E+04  7.80275E+01 -8.71969E+03 -6.96941E+03 -1.42359E+03 -1.15338E+04
  6.55556E+03 -9.81966E+03  1.09930E+04 -2.70470E+03  1.19103E+04  3.70583E+03  6.82253E+03  8.86074E+03
  8.43175E+02  9.30293E+03 -4.01299E+03  8.33652E+03 -6.11873E+03  4.54668E+03 -5.34412E+03  1.09891E+03
 -2.96796E+03 -3.59598E+01 -3.39892E+03  8.33905E+02 -5.12407E+03  1.92695E+03 -7.66146E+03 -8.28742E+02
 -6.55345E+03 -5.83140E+03 -2.64830E+03 -1.00336E+04  4.56005E+03 -1.02414E+04  8.52925E+03 -4.91864E+03
  9.68304E+03  7.34429E+02  6.15067E+03  6.98733E+03 -9.37388E+02  9.27981E+03 -8.23936E+03  7.02941E+03
