 $NMID ID='MM_0lb_SNR400_15hz_g40_2.RAW', FMTDAT='(8E13.5)'
 TRAMP=1., VOLUME=1. $END
  3.10116E+05  2.47044E+02  3.37874E+05  2.50563E+05  8.42167E+04  3.37753E+05 -1.32431E+05  2.50572E+05
 -1.90544E+05  8.26498E+04 -1.11005E+05 -3.30966E+04  1.16021E+03 -5.06701E+04  5.36784E+04  8.51982E+01
  3.46443E+04  5.27722E+04 -1.64560E+04  7.56960E+04 -6.10032E+04  6.29308E+04 -8.37326E+04  3.28193E+04
 -8.00947E+04 -1.10980E+04 -5.70554E+04 -5.04888E+04 -1.45443E+04 -6.90654E+04  2.73859E+04 -4.52037E+04
  3.93267E+04  4.09104E+03  1.58971E+04  4.77117E+04 -3.37988E+04  4.63650E+04 -6.59980E+04 -4.86016E+02
 -5.26134E+04 -5.60785E+04 -6.51081E+03 -7.64902E+04  3.28627E+04 -5.46079E+04  4.73550E+04 -1.67442E+04
  4.19658E+04  1.15355E+04  3.08639E+04  2.52919E+04  1.56410E+04  2.83008E+04 -5.23442E+03  2.64270E+04
 -2.12177E+04  1.21248E+04 -1.85921E+04 -4.23912E+03  4.65352E+03 -7.85474E+03  2.16491E+04  1.13800E+04
  7.37607E+03  3.39841E+04 -3.09925E+04  3.45175E+04 -6.22086E+04  1.83529E+03 -5.65902E+04 -4.23662E+04
 -1.23045E+04 -6.28993E+04  3.94669E+04 -4.43667E+04  5.68858E+04 -1.84650E+03  3.32135E+04  3.10000E+04
 -6.05714E+03  3.43278E+04 -2.89977E+04  1.48328E+04 -2.87462E+04 -4.74750E+03 -1.60784E+04 -1.09354E+04
 -8.16996E+03 -1.23499E+04 -7.48400E+02 -1.76444E+04  6.83603E+03 -2.26799E+04  1.48019E+04 -1.33206E+04
  1.17338E+04  4.72796E+03 -6.84351E+03  1.30750E+04 -2.03437E+04 -4.23045E+03 -7.70306E+03 -3.21304E+04
  2.17585E+04 -4.24893E+04  4.67848E+04 -1.93631E+04  4.34542E+04  1.88620E+04  1.46962E+04  4.32161E+04
 -1.57322E+04  3.23721E+04 -2.45483E+04  1.24336E+03 -8.80114E+03 -2.70382E+04  2.01811E+04 -3.26298E+04
  3.96429E+04 -8.53359E+03  3.40856E+04  2.30838E+04  1.70466E+04  4.52897E+04 -8.35600E+03  4.81218E+04
 -3.00097E+04  3.21707E+04 -3.98402E+04  8.73181E+03 -4.03796E+04 -1.52164E+04 -2.29584E+04 -3.61127E+04
  6.63732E+03 -3.57738E+04  3.04038E+04 -1.35638E+04  2.87126E+04  1.11374E+04  3.54133E+03  1.84729E+04
 -1.40157E+04  7.42903E+03 -9.91359E+03 -7.72006E+03  5.42262E+03 -1.05823E+04  1.78453E+04  6.20462E+03
  1.29209E+04  2.22835E+04 -6.81035E+03  2.36968E+04 -2.19518E+04  1.06449E+04 -2.68672E+04 -5.52273E+03
 -1.89613E+04 -1.67223E+04 -7.12389E+03 -1.94727E+04  4.45666E+03 -1.67938E+04  1.40908E+04 -1.64851E+04
  2.39901E+04 -1.19175E+04  3.11819E+04  1.86734E+03  2.22263E+04  1.83117E+04  3.78008E+03  3.53346E+04
 -1.73527E+04  2.88339E+04 -2.64319E+04  1.02370E+04 -2.04606E+04 -1.05730E+04 -3.71121E+03 -1.39341E+04
  1.98895E+03 -3.65550E+03 -3.78147E+03  6.76473E+03 -1.48873E+04  4.60523E+03 -1.52107E+04 -6.35325E+03
 -9.50083E+03 -1.74792E+04  5.54374E+03 -2.12551E+04  1.40522E+04 -1.56191E+04  1.68866E+04 -1.82894E+03
  1.02165E+04  1.22339E+04 -6.67815E+02  1.79444E+04 -1.23124E+04  1.01384E+04 -1.80118E+04 -4.14159E+03
 -1.31869E+04 -1.59513E+04 -2.03244E+03 -2.09128E+04  9.59650E+03 -1.75292E+04  1.81960E+04 -8.07976E+03
  1.62566E+04  1.09013E+03  1.18038E+04  4.14088E+03  5.81287E+03  1.18655E+03  8.55998E+03 -1.22165E+03
  1.58129E+04  2.61117E+03  1.78546E+04  1.39682E+04  1.14680E+04  2.78797E+04 -3.06798E+03  3.05659E+04
 -1.79525E+04  2.43004E+04 -2.87603E+04  1.23156E+04 -2.98735E+04 -2.32331E+03 -2.45317E+04 -1.72496E+04
 -1.03131E+04 -2.45044E+04  8.12118E+03 -2.27913E+04  1.91480E+04 -1.20249E+04  1.80965E+04  4.60091E+03
  6.74128E+03  1.30190E+04 -8.49474E+03  1.18935E+04 -1.51169E+04  2.47747E+03 -1.14228E+04 -9.33401E+03
 -4.03233E+02 -1.37792E+04  7.59824E+03 -1.02070E+04  9.94395E+03 -1.10203E+03  2.01408E+03  5.72781E+03
 -7.13427E+03  2.07748E+03 -4.50242E+03 -5.05953E+03  3.81232E+02 -1.18319E+04  9.54713E+03 -1.25012E+04
  1.55511E+04 -6.41310E+03  1.53720E+04  2.99398E+03  1.31536E+04  1.15473E+04  6.21407E+03  1.77075E+04
 -2.79185E+03  1.92564E+04 -1.21858E+04  1.22062E+04 -1.40143E+04  3.13776E+03 -1.00632E+04 -2.99140E+03
 -4.90146E+03 -4.21352E+03 -7.12894E+02  1.71691E+03 -2.26599E+03  2.33093E+03 -4.51218E+03  3.57524E+03
 -9.49140E+03 -3.53068E+01 -1.01151E+04 -8.09497E+03 -4.61519E+03 -1.34552E+04  4.39639E+03 -1.03367E+04
  8.40232E+03 -4.04914E+03  6.14191E+03  2.52995E+03  1.88159E+02  3.89064E+03 -4.42552E+03 -3.22611E+02
 -3.98885E+03 -6.33206E+03 -8.81679E+02 -8.95357E+03  4.39791E+03 -1.00569E+04  1.26513E+04 -5.15653E+03
  1.44953E+04  1.17482E+03  1.01528E+04  7.98346E+03  2.25187E+03  1.05605E+04 -5.97157E+03  1.04948E+04
 -8.42109E+03  2.75962E+03 -4.62466E+03 -1.90923E+03  1.30737E+03 -2.76263E+03  6.35221E+03 -1.26629E+03
  4.92164E+03  4.75921E+03  1.05258E+03  7.41911E+03 -5.53030E+03  7.53297E+03 -9.27158E+03  1.77418E+03
 -6.44063E+03 -4.72990E+03 -1.63042E+02 -8.26214E+03  4.96287E+03 -4.11498E+03  4.90760E+03  2.05006E+03
  5.69211E+02  5.40610E+03 -5.30268E+03  6.22454E+03 -7.11459E+03  2.90028E+03 -6.66418E+03 -2.12487E+03
 -3.86951E+03 -8.40240E+03  1.24763E+03 -9.91367E+03  8.54944E+03 -5.96718E+03  8.73823E+03  1.34774E+03
  6.11537E+03  7.18199E+03 -1.06121E+02  9.00885E+03 -6.47155E+03  5.02815E+03 -6.74840E+03 -8.21337E+02
 -7.43503E+03 -6.05146E+03 -7.28622E+02 -6.76392E+03  3.44662E+03 -5.49443E+03  3.62470E+03 -2.98468E+03
  2.95328E+03  3.87331E+02 -7.02388E+02  1.99416E+03  3.38462E+02 -1.33765E+03  5.38542E+02 -3.38263E+03
  4.78422E+03 -2.14118E+03  7.98337E+03  7.79605E+02  8.12272E+03  4.99657E+03  6.06575E+03  1.04608E+04
 -2.01591E+03  1.23112E+04 -1.04513E+04  9.08390E+03 -1.35425E+04  2.03379E+03 -1.01753E+04 -4.23793E+03
 -5.68566E+03 -8.62011E+03 -4.29690E+02 -7.10541E+03  2.31951E+03 -3.22079E+03  2.53052E+03 -3.29324E+03
  2.01675E+03 -1.82813E+03  2.63919E+03 -2.55782E+03  3.77009E+03 -2.57736E+03  4.69314E+03 -2.18989E+02
  6.21515E+03  1.70272E+03  2.18491E+03  4.96241E+03 -1.54004E+03  3.90664E+03 -6.40243E+03  3.82522E+03
 -7.33091E+03 -1.28803E+03 -3.40602E+03 -5.41768E+03 -4.62835E+01 -7.58730E+03  4.47415E+03 -7.47610E+03
  7.81352E+03 -4.45651E+03  9.28446E+03  8.85764E+02  6.26884E+03  6.59973E+03  1.05544E+03  8.48781E+03
 -3.87491E+03  7.77413E+03 -4.78616E+03  2.02651E+03 -2.78819E+03 -1.27632E+03 -7.38650E+02 -1.37680E+03
 -7.80959E+02  3.04453E+02 -1.39629E+03  2.27498E+03 -2.91491E+03  9.26688E+02 -5.57329E+03 -8.18253E+02
 -3.36189E+03 -5.24150E+03  9.07912E+02 -6.55896E+03  4.24456E+03 -6.06578E+03  6.18968E+03 -1.79951E+03
  6.05667E+03  3.29371E+03  3.03363E+03  5.83396E+03 -1.50104E+03  6.87721E+03 -4.80744E+03  3.62753E+03
 -6.33374E+03  8.25907E+02 -4.69232E+03 -4.23242E+03 -3.73123E+02 -5.38597E+03  2.86303E+03 -3.37053E+03
  4.43312E+03 -1.97196E+03  2.85165E+03  6.68385E+02  1.14904E+03  1.96197E+03  1.23578E+03  4.73345E+02
  1.97101E+03  9.99194E+02  1.84740E+03  1.36598E+03  2.15967E+03  2.79575E+03  2.22019E+03  2.56422E+03
 -1.42393E+03  4.85902E+03 -4.62473E+03  5.83486E+03 -5.57536E+03  1.48718E+03 -6.99781E+03 -2.67091E+03
 -3.30367E+03 -5.92404E+03  5.36432E+02 -7.26045E+03  3.40409E+03 -3.95373E+03  5.11214E+03 -7.70440E+02
  3.87368E+03  2.57310E+03  5.44930E+02  3.32780E+03 -1.42369E+03  1.96324E+03 -2.09223E+03 -5.72210E+02
 -1.07350E+03 -2.46673E+03  1.83230E+03 -2.65248E+03  1.98797E+03 -1.28106E+03  2.16184E+03  6.82386E+01
  1.07618E+03  8.52006E+02  9.24065E+02  3.72600E+02 -6.91423E+02  6.02379E+02  1.47186E+03  2.99382E+01
  5.76695E+02  9.06090E+00  2.70045E+03  8.42941E+02  1.04822E+03  4.06597E+03 -7.96207E+02  5.11450E+03
 -2.91279E+03  2.36917E+03 -3.50135E+03  8.03390E+02 -2.93973E+03 -1.81506E+03 -8.43035E+02 -2.37887E+03
  2.85374E+02 -1.82470E+03  1.31587E+03 -1.25585E+03  1.10193E+03  1.73998E+03 -7.95592E+02  1.52995E+03
 -2.42573E+03  1.15310E+03 -3.09451E+03 -1.93228E+03 -1.43351E+03 -2.79240E+03  2.60122E+02 -3.02203E+03
  1.24996E+03 -1.39054E+03  1.89622E+03  1.67553E+02  1.66870E+03 -6.15939E+00  8.11838E+02  1.77854E+03
 -1.00742E+03  9.84253E+02 -1.48577E+03 -4.98468E+02  1.15713E+03 -2.34655E+03  2.62773E+03 -1.83934E+03
  2.92690E+03  7.16368E+02  4.02691E+03  1.68009E+03  1.49689E+03  2.92170E+03 -8.66801E+02  3.17031E+03
 -3.48287E+03  1.07772E+03 -3.09407E+03 -1.06190E+03 -1.62648E+03 -2.41925E+03  3.77732E+01 -1.64334E+03
  2.72790E+03 -1.44611E+03  1.82916E+03  1.03917E+03 -1.31961E+02  2.28622E+03  3.08514E+01  1.85129E+03
 -6.45362E+02  1.29390E+03 -1.49668E+03  1.08679E+02 -4.84625E+02 -2.27140E+02 -9.98987E+02  1.14127E+03
 -8.94288E+02  1.49137E+03 -3.01722E+03  6.85255E+02 -3.79260E+03  6.13237E+02 -4.28153E+03 -1.68160E+03
 -2.45271E+03 -4.66147E+03  1.57239E+03 -6.01945E+03  2.57245E+03 -4.14295E+03  4.90205E+03 -1.87377E+03
  4.15438E+03  2.40730E+02  2.45962E+03  3.09585E+03 -5.12624E+02  3.09258E+03 -1.66680E+03  2.55086E+03
 -1.76320E+03  1.42954E+03 -8.86594E+02 -5.25115E+02 -1.79240E+02 -6.50995E+00 -1.12099E+03  3.93733E+02
 -1.88425E+03 -4.10335E+02 -1.32417E+03 -4.19000E+02 -7.93329E+02 -5.09273E+02  6.11482E+01 -9.19729E+02
  1.88597E+03 -7.06637E+02  1.83289E+03  4.10843E+02  1.99687E+03  1.73909E+03  3.67016E+02  2.72435E+03
 -2.02309E+03  3.93352E+03 -3.27340E+03  2.16215E+03 -4.03195E+03 -2.70631E+02 -2.30670E+03 -2.30724E+03
 -1.05751E+03 -3.17059E+03  6.25158E+02 -2.81257E+03  1.66047E+03 -2.36738E+03  1.50303E+03  5.14363E+02
  1.03900E+03  1.30483E+03  1.41849E+02  1.10298E+03 -7.32558E+02 -1.80919E+02 -2.22523E+02 -8.76187E+02
  9.19677E+02  3.10974E+02  7.56903E+02  3.61294E+02  7.59688E+02  1.29396E+03 -1.82757E+02  5.33749E+02
 -9.83600E+02  1.28117E+03 -1.94175E+03  4.23266E+02 -1.81679E+03 -1.40464E+03 -2.76767E+02 -3.01317E+03
  1.17102E+03 -1.93424E+03  1.87628E+03 -8.85083E+01  2.55286E+03 -1.09256E+02  2.08251E+03  1.67459E+03
  8.99938E+02  1.98160E+03 -7.68648E+02  1.82551E+03 -5.68740E+02  9.31759E+02 -1.05280E+03  4.31256E+02
 -7.33837E+02  3.32662E+02 -7.72203E+02  8.87663E+02 -1.47200E+03  5.14823E+02 -1.83370E+03 -4.45931E+02
 -1.90843E+03 -4.63804E+02 -1.54796E+02 -2.08777E+03  1.35419E+03 -2.98144E+03  1.51888E+03 -1.00298E+03
  1.22037E+03  2.46219E+02 -7.09327E+01  1.50211E+03 -2.97981E+02  1.88878E+03 -1.03546E+03  1.14231E+03
