 $NMID ID='MM_0lb_SNR400_14hz_g45_31.RAW', FMTDAT='(8E13.5)'
 TRAMP=1., VOLUME=1. $END
  3.10316E+05  8.40258E+02  3.38033E+05  2.50452E+05  8.47656E+04  3.37916E+05 -1.32524E+05  2.50653E+05
 -1.90180E+05  8.30720E+04 -1.11518E+05 -3.22512E+04  1.08893E+03 -5.06039E+04  5.35610E+04 -8.10803E+01
  3.55246E+04  5.30306E+04 -1.71211E+04  7.49417E+04 -6.07146E+04  6.33394E+04 -8.37778E+04  3.18038E+04
 -8.04361E+04 -1.14344E+04 -5.76588E+04 -5.05966E+04 -1.48836E+04 -6.97185E+04  2.76056E+04 -4.54747E+04
  3.95642E+04  3.92036E+03  1.69212E+04  4.80013E+04 -3.39200E+04  4.69779E+04 -6.65536E+04 -1.59319E+02
 -5.34528E+04 -5.66771E+04 -6.83151E+03 -7.71614E+04  3.37597E+04 -5.45271E+04  4.80621E+04 -1.72911E+04
  4.36945E+04  1.14805E+04  3.15311E+04  2.48570E+04  1.56393E+04  2.93425E+04 -5.59683E+03  2.72221E+04
 -2.21983E+04  1.19960E+04 -1.87665E+04 -4.91439E+03  5.58221E+03 -7.46789E+03  2.23412E+04  1.17189E+04
  7.90264E+03  3.48870E+04 -3.17190E+04  3.55456E+04 -6.30764E+04  1.97656E+03 -5.70299E+04 -4.26085E+04
 -1.26181E+04 -6.32281E+04  3.92384E+04 -4.49218E+04  5.84831E+04 -1.83009E+03  3.34333E+04  3.19009E+04
 -6.48688E+03  3.56459E+04 -2.97480E+04  1.50692E+04 -3.07323E+04 -4.84529E+03 -1.59830E+04 -1.08578E+04
 -8.11509E+03 -1.35295E+04 -1.23760E+03 -1.75561E+04  6.54363E+03 -2.29003E+04  1.53591E+04 -1.33398E+04
  1.18615E+04  4.98032E+03 -7.92097E+03  1.29982E+04 -2.08403E+04 -3.37426E+03 -8.59157E+03 -3.37819E+04
  2.24054E+04 -4.37144E+04  4.73072E+04 -2.00533E+04  4.44503E+04  1.91128E+04  1.49948E+04  4.38675E+04
 -1.51754E+04  3.27848E+04 -2.52089E+04  2.01667E+03 -9.67837E+03 -2.81863E+04  2.04921E+04 -3.34163E+04
  4.04649E+04 -9.41817E+03  3.53898E+04  2.38864E+04  1.78741E+04  4.63449E+04 -8.20220E+03  5.02247E+04
 -3.13695E+04  3.30862E+04 -4.20226E+04  8.97692E+03 -4.15752E+04 -1.69382E+04 -2.35549E+04 -3.76684E+04
  7.37904E+03 -3.70146E+04  3.08789E+04 -1.44482E+04  2.91021E+04  1.05542E+04  3.38230E+03  1.92430E+04
 -1.28508E+04  8.15838E+03 -9.67383E+03 -7.28482E+03  5.99288E+03 -1.04855E+04  1.79619E+04  6.49506E+03
  1.32793E+04  2.21602E+04 -5.91199E+03  2.52947E+04 -2.25352E+04  1.14360E+04 -2.77741E+04 -4.97119E+03
 -2.08233E+04 -1.73919E+04 -8.36981E+03 -2.02440E+04  3.70624E+03 -1.92485E+04  1.53678E+04 -1.80575E+04
  2.58735E+04 -1.21671E+04  3.25320E+04  2.72591E+03  2.33193E+04  2.00288E+04  3.96590E+03  3.59023E+04
 -1.78910E+04  2.98540E+04 -2.77240E+04  1.05328E+04 -2.10499E+04 -9.62131E+03 -4.61865E+03 -1.39155E+04
  1.99577E+03 -2.50556E+03 -4.85392E+03  6.37217E+03 -1.56282E+04  5.65975E+03 -1.62933E+04 -6.40889E+03
 -9.42724E+03 -1.93941E+04  5.07007E+03 -2.25245E+04  1.53632E+04 -1.63889E+04  1.78157E+04 -9.38147E+02
  1.07164E+04  1.24878E+04 -7.36966E+02  1.86391E+04 -1.23755E+04  1.04172E+04 -1.86300E+04 -4.09378E+03
 -1.43327E+04 -1.72591E+04 -1.86395E+03 -2.31523E+04  9.89300E+03 -1.90820E+04  1.86042E+04 -8.78330E+03
  1.75003E+04  3.66384E+02  1.34893E+04  4.27914E+03  6.42200E+03  1.22917E+03  9.58020E+03 -1.76680E+03
  1.65071E+04  2.96397E+03  1.80308E+04  1.53477E+04  1.24958E+04  2.99966E+04 -2.18767E+03  3.38093E+04
 -1.90195E+04  2.66894E+04 -3.12903E+04  1.34440E+04 -3.21353E+04 -2.37959E+03 -2.75097E+04 -1.84657E+04
 -1.13466E+04 -2.69237E+04  9.59980E+03 -2.41547E+04  2.06033E+04 -1.28296E+04  1.86343E+04  5.02927E+03
  7.34635E+03  1.41746E+04 -9.01039E+03  1.24158E+04 -1.60753E+04  2.15693E+03 -1.23751E+04 -9.78403E+03
 -3.16163E+02 -1.51608E+04  8.46663E+03 -1.08033E+04  9.93597E+03 -1.26394E+03  1.48522E+03  6.68451E+03
 -6.64526E+03  2.19634E+03 -5.85036E+03 -4.84021E+03 -9.56539E+01 -1.28884E+04  9.12293E+03 -1.36046E+04
  1.67603E+04 -7.43712E+03  1.80129E+04  3.34742E+03  1.52796E+04  1.30995E+04  6.93446E+03  2.00177E+04
 -3.31305E+03  2.09754E+04 -1.35227E+04  1.34261E+04 -1.55767E+04  2.98023E+03 -1.08439E+04 -3.76360E+03
 -5.46145E+03 -4.70426E+03 -6.57052E+02  1.46019E+03 -2.50418E+03  3.05330E+03 -4.51860E+03  4.28565E+03
 -1.00624E+04 -1.07546E+03 -1.09042E+04 -8.83010E+03 -4.10452E+03 -1.41649E+04  3.97783E+03 -1.09916E+04
  8.88713E+03 -4.39507E+03  6.83654E+03  2.54142E+03  4.64662E+02  4.12869E+03 -5.77779E+03 -4.45286E+02
 -4.77706E+03 -7.31959E+03 -9.04055E+02 -1.10197E+04  6.02262E+03 -1.17377E+04  1.32129E+04 -5.88046E+03
  1.58379E+04  1.73780E+03  1.24740E+04  9.49964E+03  2.61443E+03  1.23858E+04 -6.63527E+03  1.08821E+04
 -9.09314E+03  3.28244E+03 -4.57515E+03 -1.72227E+03  1.62028E+03 -3.64253E+03  5.91368E+03 -4.78560E+02
  5.23838E+03  4.85162E+03  1.52118E+03  9.10493E+03 -5.95183E+03  8.23842E+03 -1.06804E+04  2.40258E+03
 -7.01657E+03 -6.17480E+03  1.76238E+01 -9.26243E+03  5.06851E+03 -4.49530E+03  5.68119E+03  2.37060E+03
  1.45713E+03  5.88734E+03 -5.44102E+03  7.54536E+03 -8.18091E+03  3.53598E+03 -7.74949E+03 -2.42460E+03
 -4.62309E+03 -9.87124E+03  2.09670E+03 -1.10359E+04  9.60690E+03 -6.71985E+03  1.01041E+04  1.71784E+03
  5.65639E+03  7.97752E+03  1.70305E+02  9.82851E+03 -7.09577E+03  5.58138E+03 -8.00077E+03 -6.02889E+02
 -7.13863E+03 -6.88110E+03 -2.07774E+03 -7.37540E+03  3.89012E+03 -6.85144E+03  4.77870E+03 -3.47065E+03
  3.35550E+03  1.10881E+03 -3.33042E+02  2.04558E+03  2.30223E+02 -1.35786E+03  1.18625E+03 -3.88052E+03
  6.08510E+03 -1.56731E+03  8.90615E+03  9.69815E+02  8.86713E+03  5.42739E+03  6.97210E+03  1.14312E+04
 -2.78706E+03  1.36720E+04 -1.18995E+04  1.05972E+04 -1.55713E+04  2.03631E+03 -1.25209E+04 -5.19185E+03
 -6.58110E+03 -9.67752E+03 -9.02798E+01 -7.90593E+03  3.21091E+03 -3.68984E+03  2.64016E+03 -3.81084E+03
  2.20543E+03 -1.53742E+03  2.55741E+03 -2.78238E+03  4.55299E+03 -2.06677E+03  5.38163E+03 -3.73866E+02
  6.66219E+03  1.53571E+03  2.50219E+03  4.94272E+03 -1.92684E+03  5.45767E+03 -6.69250E+03  4.38808E+03
 -8.29879E+03 -1.35669E+03 -4.61585E+03 -5.91634E+03 -1.26729E+02 -8.80670E+03  4.76838E+03 -8.96419E+03
  9.05385E+03 -5.69542E+03  1.11442E+04  8.58152E+02  7.42836E+03  7.04119E+03  9.37142E+02  1.02427E+04
 -3.99745E+03  9.30049E+03 -6.20319E+03  2.58398E+03 -3.89765E+03 -1.78328E+03 -1.20833E+03 -1.46929E+03
 -2.46491E+02 -1.26739E+02 -1.27821E+03  2.53043E+03 -3.71146E+03  1.82757E+03 -6.16765E+03 -6.11483E+02
 -3.45146E+03 -6.25241E+03  7.09810E+02 -8.06867E+03  5.29255E+03 -7.88262E+03  7.28054E+03 -2.44069E+03
  7.69441E+03  3.59888E+03  3.39938E+03  6.96910E+03 -1.37087E+03  7.88296E+03 -5.46911E+03  4.64831E+03
 -6.92733E+03  2.68957E+02 -4.67558E+03 -5.50595E+03  5.61174E+01 -6.36052E+03  3.34216E+03 -4.41548E+03
  4.41687E+03 -1.66210E+03  3.65815E+03  7.48167E+02  1.20225E+03  2.88920E+03  1.56371E+03  5.86403E+02
  1.53952E+03  1.12978E+03  1.73609E+03  1.46263E+03  2.21607E+03  3.11660E+03  1.57142E+03  3.93674E+03
 -2.15590E+03  5.59886E+03 -4.71259E+03  6.19898E+03 -6.83328E+03  1.58176E+03 -7.89172E+03 -2.39754E+03
 -3.85645E+03 -7.37769E+03  1.19763E+03 -8.83693E+03  4.22076E+03 -4.89804E+03  6.28824E+03 -1.60214E+03
  5.33200E+03  2.74662E+03  1.15396E+03  4.30315E+03 -2.47636E+03  2.15473E+03 -2.90597E+03 -3.43562E+01
 -9.79003E+02 -3.24059E+03  1.79095E+03 -3.27541E+03  2.53661E+03 -1.74112E+03  2.70451E+03  5.39288E+02
  1.35227E+03  1.27951E+03  7.13876E+02  9.90179E+02 -5.64353E+02  5.18709E+02  1.40517E+03 -6.30030E+02
  5.68148E+02 -4.16626E+02  3.08763E+03  1.42930E+03  1.19185E+03  4.03295E+03 -8.38732E+02  5.39845E+03
 -3.54138E+03  2.88407E+03 -4.23299E+03  1.20664E+03 -4.19266E+03 -1.59491E+03 -1.46858E+03 -2.31143E+03
 -3.86503E+01 -2.58832E+03  1.77004E+03 -8.37239E+02  1.35931E+03  2.27346E+03 -9.48501E+02  2.06214E+03
 -3.31246E+03  1.66206E+03 -3.14154E+03 -2.64252E+03 -2.24112E+03 -4.40564E+03 -3.11237E+01 -3.81374E+03
  2.48562E+03 -1.77349E+03  2.46980E+03  2.43035E+02  3.16024E+03  8.42634E+02  4.42444E+02  1.93653E+03
 -1.26186E+03  2.98094E+02 -1.84862E+03 -1.24782E+03  1.20203E+03 -2.42618E+03  3.50405E+03 -1.54667E+03
  3.62476E+03  2.38068E+02  5.26028E+03  2.32588E+03  1.54683E+03  4.15902E+03 -1.25146E+03  4.14576E+03
 -3.23981E+03  9.72272E+02 -3.52494E+03 -1.77506E+02 -2.09639E+03 -2.68579E+03 -7.74573E+01 -2.48831E+03
  2.76234E+03 -1.34674E+03  2.22415E+03  1.22374E+03  5.18028E+02  2.74153E+03 -2.98353E+02  2.82773E+03
 -1.90358E+03  1.79233E+03 -1.50857E+03  8.54657E+02  4.79752E+01  7.96548E+02 -1.75001E+03  7.25317E+02
 -1.08988E+03  1.92080E+03 -3.14439E+03  1.40333E+03 -4.21317E+03 -1.46737E+02 -5.54854E+03 -2.30065E+03
 -2.71243E+03 -5.71969E+03  1.35599E+03 -5.70435E+03  3.76507E+03 -4.94140E+03  6.16639E+03 -2.01837E+03
  5.54621E+03  5.07008E+02  3.58291E+03  3.95585E+03  1.18199E+02  4.08410E+03 -1.42855E+03  3.28633E+03
 -2.68245E+03  2.07932E+03 -1.31202E+03 -1.28017E+03 -1.09439E+03  4.65852E+02 -4.53289E+02 -1.68923E+02
 -1.29824E+03  2.68708E+02 -7.87621E+02 -2.11497E+02  4.71354E+01 -3.72435E+02  9.05468E+01 -1.61704E+03
  2.39686E+03 -1.28959E+03  2.25139E+03  8.05402E+01  2.86447E+03  2.20280E+03 -1.37408E+02  4.40794E+03
 -1.76964E+03  5.26906E+03 -4.12443E+03  3.06305E+03 -4.80439E+03 -2.41598E+02 -3.02501E+03 -3.38783E+03
 -1.65942E+03 -3.81719E+03  1.16599E+03 -3.54097E+03  2.43769E+03 -2.35690E+03  2.17287E+03  5.16764E+02
  2.10965E+03  1.53515E+03  2.62347E+02  7.96045E+02 -9.96501E+02 -2.82515E+02 -7.18267E+01 -8.43343E+02
  1.15037E+03 -3.55973E+02  1.78134E+03  9.20952E+02  5.00166E+02  1.18264E+03  8.55666E+01  1.62336E+03
 -1.61841E+03  2.04176E+03 -2.07059E+03  5.48440E+02 -2.52155E+03 -1.78385E+03 -1.43301E+02 -3.33975E+03
  2.06546E+03 -2.04517E+03  2.77662E+03 -4.90656E+02  2.88239E+03  3.78332E+02  1.26884E+03  2.14389E+03
 -1.23152E+02  1.53654E+03 -6.28023E+02  1.66189E+03 -1.31329E+03  2.25281E+03 -1.25993E+03  2.94110E+02
 -1.03607E+03 -9.72623E+02 -3.70499E+01  4.57003E+02 -1.49711E+03  9.67173E+02 -1.58624E+03 -4.11551E+02
 -2.63751E+03 -1.89595E+02 -8.80381E+02 -2.28999E+03  1.36467E+03 -2.76095E+03  2.63383E+03 -1.33076E+03
  2.15843E+03  1.40050E+01  6.52880E+02  8.67213E+02 -5.67004E+02  2.19606E+03 -1.66900E+03  1.85167E+03
