 $NMID ID='MM_0lb_SNR400_20hz_g45_17.RAW', FMTDAT='(8E13.5)'
 TRAMP=1., VOLUME=1. $END
  3.10679E+05  3.12236E+02  3.37266E+05  2.50647E+05  8.39755E+04  3.36973E+05 -1.32553E+05  2.49641E+05
 -1.89735E+05  8.22776E+04 -1.10595E+05 -3.26447E+04  1.77338E+03 -5.01313E+04  5.38694E+04 -1.07445E+02
  3.47947E+04  5.28866E+04 -1.73510E+04  7.40104E+04 -6.07782E+04  6.25617E+04 -8.26927E+04  3.18071E+04
 -7.87829E+04 -1.11361E+04 -5.63013E+04 -4.94484E+04 -1.47503E+04 -6.86242E+04  2.69828E+04 -4.43435E+04
  3.90249E+04  4.27729E+03  1.57887E+04  4.71184E+04 -3.34951E+04  4.47751E+04 -6.51004E+04 -5.85646E+01
 -5.13944E+04 -5.57699E+04 -6.14026E+03 -7.43895E+04  3.29266E+04 -5.25277E+04  4.56498E+04 -1.58350E+04
  4.12377E+04  1.15306E+04  3.06211E+04  2.40141E+04  1.55735E+04  2.81378E+04 -4.34684E+03  2.57738E+04
 -2.15151E+04  1.32062E+04 -1.98425E+04 -4.47000E+03  4.23943E+03 -7.76079E+03  2.09782E+04  1.07254E+04
  7.47890E+03  3.21716E+04 -3.00585E+04  3.32163E+04 -6.01851E+04  2.48032E+03 -5.43416E+04 -4.09346E+04
 -1.19864E+04 -5.99630E+04  3.71714E+04 -4.23348E+04  5.46868E+04 -1.83864E+03  3.09461E+04  3.00964E+04
 -7.11425E+03  3.17246E+04 -2.79419E+04  1.21823E+04 -2.62783E+04 -5.67564E+03 -1.36215E+04 -9.74453E+03
 -6.88658E+03 -1.04283E+04 -1.43139E+03 -1.64827E+04  6.03801E+03 -2.20067E+04  1.46698E+04 -1.41918E+04
  1.24819E+04  3.65508E+03 -5.40028E+03  1.29104E+04 -1.88791E+04 -2.21046E+03 -7.90742E+03 -2.93742E+04
  1.99611E+04 -3.98577E+04  4.37069E+04 -1.80478E+04  4.07737E+04  1.78115E+04  1.36347E+04  4.05547E+04
 -1.52442E+04  3.01505E+04 -2.23791E+04  1.23022E+03 -7.96788E+03 -2.66273E+04  1.97982E+04 -2.99729E+04
  3.66318E+04 -6.66802E+03  3.00103E+04  2.20174E+04  1.44028E+04  4.12390E+04 -7.23351E+03  4.39368E+04
 -2.72470E+04  2.88740E+04 -3.63303E+04  7.81987E+03 -3.69911E+04 -1.44730E+04 -2.02631E+04 -3.33210E+04
  6.97384E+03 -3.27633E+04  2.84326E+04 -1.21109E+04  2.59195E+04  1.07321E+04  3.13736E+03  1.68399E+04
 -1.32483E+04  6.75831E+03 -9.57581E+03 -7.30930E+03  5.75165E+03 -9.72609E+03  1.72754E+04  6.79662E+03
  1.23225E+04  2.17544E+04 -6.78691E+03  2.31071E+04 -2.09635E+04  8.87808E+03 -2.39406E+04 -7.11787E+03
 -1.53665E+04 -1.63958E+04 -5.44155E+03 -1.54510E+04  3.09558E+03 -1.30900E+04  1.18522E+04 -1.35914E+04
  1.94775E+04 -1.10631E+04  2.72730E+04  4.96712E+02  2.09955E+04  1.48322E+04  4.24222E+03  3.10434E+04
 -1.52896E+04  2.67748E+04 -2.53371E+04  9.13450E+03 -1.92370E+04 -1.07160E+04 -3.62197E+03 -1.45130E+04
  2.57690E+03 -4.73094E+03 -1.97065E+03  4.85353E+03 -1.17603E+04  5.56611E+03 -1.20489E+04 -4.06396E+03
 -8.23125E+03 -1.37082E+04  4.47847E+03 -1.80860E+04  1.13903E+04 -1.33036E+04  1.38964E+04 -1.29022E+03
  8.00598E+03  1.00225E+04 -5.00704E+02  1.47282E+04 -9.76396E+03  7.80777E+03 -1.44902E+04 -3.57559E+03
 -1.09613E+04 -1.31567E+04 -1.71555E+03 -1.79262E+04  8.03529E+03 -1.41058E+04  1.52963E+04 -6.39699E+03
  1.35363E+04  9.95512E+02  9.68673E+03  3.45415E+03  4.87075E+03  2.74264E+02  7.77621E+03 -1.48517E+03
  1.29081E+04  2.40838E+03  1.30403E+04  1.16326E+04  7.78781E+03  2.31119E+04 -3.58348E+03  2.43205E+04
 -1.44637E+04  1.85781E+04 -2.22384E+04  8.69259E+03 -2.26504E+04 -1.53105E+03 -1.92113E+04 -1.23534E+04
 -9.68116E+03 -1.78432E+04  5.69201E+03 -1.75213E+04  1.48471E+04 -1.04397E+04  1.45627E+04  3.00567E+03
  6.48607E+03  1.04062E+04 -6.77456E+03  9.83549E+03 -1.22485E+04  2.64850E+03 -9.38969E+03 -7.42808E+03
 -3.40394E+02 -1.19779E+04  5.42922E+03 -9.44590E+03  7.27407E+03 -9.48278E+02  9.33218E+02  4.65338E+03
 -4.92351E+03  1.07684E+03 -2.97530E+03 -4.48447E+03  7.77603E+02 -9.22888E+03  7.36456E+03 -8.57070E+03
  1.09181E+04 -3.59158E+03  1.05171E+04  2.97056E+03  8.87569E+03  9.14082E+03  4.29646E+03  1.24222E+04
 -1.17840E+03  1.41939E+04 -8.49671E+03  8.62566E+03 -1.00340E+04  2.68989E+03 -7.40611E+03 -1.27998E+03
 -3.79531E+03 -2.72798E+03 -4.19281E+02  1.55653E+03 -1.61458E+03  1.70036E+03 -3.25941E+03  3.32961E+03
 -6.97675E+03 -5.70706E+02 -8.07851E+03 -6.65107E+03 -3.09329E+03 -1.03651E+04  3.26831E+03 -7.65963E+03
  7.13131E+03 -3.28984E+03  5.09618E+03  2.27245E+03  9.55580E+02  2.18605E+03 -2.73489E+03  1.36972E+02
 -3.44691E+03 -4.79198E+03 -8.30941E+02 -6.30573E+03  3.25414E+03 -6.85751E+03  8.77774E+03 -3.44038E+03
  1.00187E+04  4.79208E+02  8.44140E+03  4.62747E+03  1.16204E+03  7.53106E+03 -4.90523E+03  7.47970E+03
 -6.06638E+03  1.88087E+03 -3.41268E+03 -1.36996E+03  1.22098E+03 -1.72380E+03  4.49793E+03 -1.28602E+03
  3.64839E+03  2.84911E+03  1.06157E+03  5.61717E+03 -4.62380E+03  5.59277E+03 -7.15497E+03  2.07374E+03
 -4.32942E+03 -3.23123E+03  3.00416E+02 -6.12141E+03  3.36917E+03 -2.67696E+03  2.75439E+03  3.79612E+02
 -7.04864E+01  2.80763E+03 -3.49173E+03  4.19091E+03 -3.90663E+03  2.28312E+03 -3.51708E+03 -7.28132E+02
 -1.92064E+03 -4.81957E+03  5.39041E+02 -5.80065E+03  4.63910E+03 -4.59650E+03  4.80733E+03  5.88226E+02
  4.20380E+03  4.56221E+03  7.31658E+02  7.12874E+03 -4.21035E+03  3.24422E+03 -4.01009E+03 -8.07116E+02
 -5.33196E+03 -4.25747E+03 -1.69266E+03 -3.83550E+03  2.30931E+03 -4.02140E+03  2.62859E+03 -3.32063E+03
  2.58374E+03 -7.47142E+01  4.40259E+02  5.33419E+02  7.92493E+02  1.35930E+02  1.33333E+02 -1.40645E+03
  2.87940E+03 -2.34064E+02  3.62716E+03  9.84071E+01  4.94105E+03  2.37353E+03  5.15210E+03  5.65244E+03
 -7.01649E+02  6.98201E+03 -6.83472E+03  6.27023E+03 -8.11423E+03  9.02484E+02 -6.48792E+03 -2.09408E+03
 -3.48495E+03 -5.48277E+03 -6.52687E+02 -4.37527E+03  2.39353E+03 -1.64940E+03  1.32932E+03 -1.76284E+03
  1.31136E+03 -1.28874E+03  1.96659E+03 -2.39397E+03  3.36699E+03 -9.69788E+02  2.60505E+03  5.70842E+02
  4.16048E+03  8.10447E+02  5.30291E+02  2.43515E+03 -1.51240E+03  2.36847E+03 -3.59409E+03  2.49421E+03
 -4.13856E+03 -1.01999E+03 -1.02437E+03 -2.82274E+03  7.32571E+02 -4.21546E+03  2.89243E+03 -4.50963E+03
  4.22315E+03 -3.15906E+03  5.24542E+03 -2.83411E+02  4.00949E+03  3.56562E+03  7.60068E+02  4.71546E+03
 -1.70603E+03  4.95407E+03 -2.99848E+03  1.43141E+03 -1.70628E+03 -8.83456E+02 -9.06082E+01 -4.21273E+02
 -2.36208E+02  2.70901E+02 -3.86929E+02  2.00088E+03 -1.71843E+03  9.18838E+02 -3.41654E+03 -6.07499E+02
 -7.86917E+02 -3.69938E+03  4.66121E+02 -3.70994E+03  1.84707E+03 -3.06783E+03  2.62215E+03 -9.35431E+02
  3.15766E+03  2.05610E+03  1.73309E+03  2.61117E+03 -5.09492E+02  3.48117E+03 -2.14404E+03  2.24273E+03
 -2.84625E+03  1.18427E+03 -2.37443E+03 -1.67416E+03 -1.24234E+02 -2.38791E+03  1.14153E+03 -1.71843E+03
  2.23672E+03 -7.74213E+02  1.51420E+03  5.61898E+02  3.31352E+02  2.03622E+03  6.35684E+02  4.01003E+02
  1.08846E+03  1.91657E+02  1.07841E+03  5.66354E+02  8.19687E+02  2.14537E+03  1.11830E+03  1.41251E+03
 -5.86636E+02  2.64912E+03 -2.21550E+03  3.91118E+03 -2.39379E+03  1.00130E+03 -2.79109E+03 -4.12429E+02
 -1.18888E+03 -2.37630E+03  9.46862E+02 -3.80859E+03  1.54662E+03 -1.53463E+03  2.51727E+03 -4.21732E+02
  1.79163E+03  1.27978E+03  1.91166E+02  1.95690E+03  1.12306E+01  9.02221E+02 -1.07757E+03  2.09135E+02
 -9.68105E+02 -1.08423E+03  3.00768E+02 -7.81532E+02  6.62666E+02 -1.00269E+03  1.15609E+03  7.49269E+02
  6.09388E+02  3.34625E+01  4.55087E+02 -4.28209E+02 -5.58386E+02  2.37091E+02  1.80330E+03 -4.27423E+02
 -7.81518E+02 -4.67402E+02  1.87739E+03  3.17015E+02  3.40792E+02  2.28626E+03 -1.06834E+02  2.41898E+03
 -1.22704E+03  4.32195E+02 -1.19070E+03  3.75356E+02 -1.31399E+03 -3.96598E+02  3.66960E+02 -8.11641E+02
  8.75241E+02 -6.94710E+02  6.63660E+02 -2.98907E+02  5.93971E+02  1.46870E+03 -7.35852E+02  1.12685E+03
 -1.23671E+03  5.42577E+02 -7.32187E+02 -1.05074E+03 -3.32070E+02 -2.29313E+03  9.18273E+01 -8.76684E+02
 -4.16309E+02 -2.42008E+02  5.11177E+02  2.71814E+02  1.20691E+03  1.34645E+00  6.38179E+02  7.37414E+02
 -1.54633E+02 -1.37182E+02 -7.78326E+02  3.42043E+01  5.99150E+02  1.03498E+02  1.79181E+03 -2.71682E+02
  9.14708E+02  1.28141E+02  2.18228E+03  4.79198E+02  1.42461E+03  6.52879E+02  1.59682E+02  1.23193E+03
 -1.01655E+03  2.74426E+02 -1.45201E+03 -1.23601E+02 -9.34421E+02 -1.24495E+03  1.00241E+03 -7.26466E+02
  9.80033E+02 -8.79023E+02  1.10086E+03  9.60156E+02 -5.81162E+01  9.65943E+02  4.98269E+02  9.10125E+02
  1.13454E+02  1.34555E+03 -6.43239E+02 -4.28795E+02  4.04550E+02 -3.96408E+01 -8.27763E+02  3.95139E+02
 -6.92795E+02  8.22610E+02 -1.33181E+03  2.82289E+02 -1.04635E+03  5.06799E+02 -1.79112E+03 -7.12254E+02
 -8.72920E+02 -2.08115E+03  6.99305E+02 -2.23369E+03  5.91418E+02 -2.13549E+03  2.45122E+03 -5.48811E+02
  1.72297E+03 -2.77253E+02  8.73241E+02  1.21756E+03 -6.51084E+02  7.78539E+02 -6.67404E+02  1.24095E+03
 -5.41660E+02  6.54754E+02 -4.99657E+02 -2.33202E+02 -4.78531E+02  4.60981E+02 -4.51448E+02  4.64237E+02
 -1.30132E+03 -2.35737E+02 -6.77888E+02  9.02206E+01  6.58206E+01 -2.39375E+01 -5.47447E+02 -8.71243E+02
  9.90565E+02 -6.92197E+02  5.90012E+02  1.26745E+02  3.92932E+02  1.01324E+03 -1.60235E+02  4.94147E+02
 -8.07670E+02  1.82704E+03 -7.69047E+02  5.70814E+02 -1.29529E+03  1.59333E+01 -6.30273E+02 -1.10113E+03
 -3.43703E+02 -9.38012E+02  4.11095E+02 -1.09685E+03  3.02767E+02 -5.14509E+02  2.33954E+02  2.72567E+02
  3.56635E+02  1.97600E+02 -1.42951E+02  5.05708E+02 -3.74400E+02  4.94644E+01  2.44537E+02 -4.35692E+02
  1.64646E+02  2.38987E+02  3.98173E+02  7.26235E+02 -1.86329E+02  5.55842E+02 -5.47814E+01 -3.80130E+02
 -4.43273E+02  4.25286E+02 -9.83696E+00  1.69434E+02 -1.18130E+03 -7.40737E+02 -7.86276E+01 -9.71992E+02
 -6.52902E+01 -5.91456E+02  2.81545E+02  2.13347E+02  1.14776E+03 -9.63220E+02  4.76235E+02  6.43321E+02
  6.65410E+02  3.06842E+02 -2.72849E+02 -5.84309E+01 -2.98234E+02  5.17627E+02 -4.08389E+02  1.53919E+02
  3.81985E+02 -6.45139E+02 -6.82844E+02  2.47254E+01 -9.74388E+02 -4.27231E+02 -4.95329E+02  2.31682E+02
 -1.27278E+03  4.79761E+02 -2.42853E+02 -2.74294E+02  4.75088E+02 -1.03026E+03  8.74663E+02 -7.84883E+01
  6.06833E+02  2.46094E+02 -3.10886E+02  1.67660E+02  1.77009E+01  7.33347E+02 -1.43393E+01  7.85692E+02
