 $NMID ID='MM_0lb_SNR400_19hz_g55_68.RAW', FMTDAT='(8E13.5)'
 TRAMP=1., VOLUME=1. $END
  3.09450E+05 -1.32927E+02  3.37841E+05  2.50511E+05  8.46769E+04  3.37496E+05 -1.32287E+05  2.49817E+05
 -1.90176E+05  8.22143E+04 -1.11467E+05 -3.28501E+04  1.31171E+03 -5.05724E+04  5.41934E+04  3.68328E+02
  3.55866E+04  5.29904E+04 -1.65572E+04  7.52417E+04 -5.94333E+04  6.34014E+04 -8.34561E+04  3.13457E+04
 -8.02898E+04 -1.10558E+04 -5.65079E+04 -5.05831E+04 -1.51613E+04 -6.86147E+04  2.68589E+04 -4.49073E+04
  3.92342E+04  4.03018E+03  1.56677E+04  4.72454E+04 -3.43042E+04  4.64256E+04 -6.56997E+04 -6.51097E+02
 -5.22726E+04 -5.63496E+04 -6.58159E+03 -7.55007E+04  3.34168E+04 -5.34703E+04  4.63573E+04 -1.65193E+04
  4.18400E+04  1.10980E+04  3.12548E+04  2.44433E+04  1.55596E+04  2.79695E+04 -4.57574E+03  2.65652E+04
 -2.15391E+04  1.21413E+04 -1.89353E+04 -4.79017E+03  4.67869E+03 -7.44901E+03  2.17653E+04  1.15435E+04
  7.83766E+03  3.39549E+04 -3.06240E+04  3.48469E+04 -6.22554E+04  2.15351E+03 -5.56971E+04 -4.14584E+04
 -1.20182E+04 -6.18564E+04  3.87651E+04 -4.38231E+04  5.57287E+04 -1.40267E+03  3.24966E+04  3.14570E+04
 -6.01409E+03  3.37963E+04 -2.84460E+04  1.38933E+04 -2.83678E+04 -4.67964E+03 -1.48546E+04 -9.80507E+03
 -7.70266E+03 -1.21004E+04 -1.04862E+03 -1.69939E+04  6.63855E+03 -2.26129E+04  1.48434E+04 -1.42099E+04
  1.16941E+04  4.49823E+03 -6.85221E+03  1.39139E+04 -1.97068E+04 -3.21105E+03 -8.09551E+03 -3.11277E+04
  2.11564E+04 -4.15254E+04  4.49178E+04 -1.88501E+04  4.22818E+04  1.85260E+04  1.50366E+04  4.20284E+04
 -1.53808E+04  3.14866E+04 -2.33669E+04  1.62506E+03 -9.11865E+03 -2.64739E+04  2.10403E+04 -3.15701E+04
  3.85501E+04 -7.61269E+03  3.23210E+04  2.24416E+04  1.62156E+04  4.36828E+04 -8.10271E+03  4.59359E+04
 -2.90133E+04  3.05818E+04 -3.84256E+04  8.56497E+03 -3.91322E+04 -1.52238E+04 -2.13834E+04 -3.51201E+04
  7.13777E+03 -3.44970E+04  3.00604E+04 -1.29097E+04  2.70520E+04  1.07450E+04  3.26611E+03  1.80865E+04
 -1.33578E+04  7.45384E+03 -1.00153E+04 -8.17216E+03  6.05901E+03 -1.05264E+04  1.74758E+04  6.06671E+03
  1.26139E+04  2.19122E+04 -6.27546E+03  2.41800E+04 -2.16005E+04  9.57414E+03 -2.56491E+04 -5.91408E+03
 -1.77064E+04 -1.63815E+04 -6.60384E+03 -1.77954E+04  3.69931E+03 -1.51254E+04  1.28064E+04 -1.50060E+04
  2.22243E+04 -1.19477E+04  2.92156E+04  1.55537E+03  2.21238E+04  1.67997E+04  4.16100E+03  3.26357E+04
 -1.65953E+04  2.77313E+04 -2.65855E+04  9.47449E+03 -1.99379E+04 -1.01690E+04 -4.22833E+03 -1.36737E+04
  2.96103E+03 -3.93032E+03 -2.99979E+03  5.08616E+03 -1.35809E+04  5.29542E+03 -1.38967E+04 -5.76273E+03
 -8.31691E+03 -1.62720E+04  4.68037E+03 -1.95714E+04  1.31045E+04 -1.47474E+04  1.48138E+04 -1.28320E+03
  8.90532E+03  1.09383E+04 -4.79315E+02  1.72540E+04 -1.12259E+04  9.22631E+03 -1.54509E+04 -3.04811E+03
 -1.19700E+04 -1.41555E+04 -1.34809E+03 -1.96143E+04  8.68901E+03 -1.55088E+04  1.59920E+04 -7.73533E+03
  1.45870E+04  2.41773E+02  1.04828E+04  4.20225E+03  4.96658E+03  3.11990E+02  7.67799E+03 -1.50882E+03
  1.45083E+04  2.81035E+03  1.51052E+04  1.29884E+04  8.95700E+03  2.53966E+04 -2.95581E+03  2.75379E+04
 -1.56210E+04  2.11730E+04 -2.51513E+04  1.01949E+04 -2.56696E+04 -1.82036E+03 -2.25145E+04 -1.46651E+04
 -9.77871E+03 -2.13778E+04  7.12321E+03 -1.96510E+04  1.68706E+04 -1.12222E+04  1.64831E+04  3.44588E+03
  6.33643E+03  1.15662E+04 -6.83282E+03  1.07770E+04 -1.34572E+04  2.69460E+03 -1.02628E+04 -8.37894E+03
  6.14129E+02 -1.24094E+04  6.38854E+03 -9.33808E+03  8.32754E+03 -1.47070E+03  1.58691E+03  4.86979E+03
 -5.73758E+03  1.86596E+03 -4.12591E+03 -4.83605E+03  5.86107E+02 -1.07044E+04  7.80098E+03 -1.03129E+04
  1.23966E+04 -5.01461E+03  1.22300E+04  2.92514E+03  1.10362E+04  9.90197E+03  4.83055E+03  1.46916E+04
 -1.76361E+03  1.58083E+04 -1.02044E+04  1.03051E+04 -1.12787E+04  2.27155E+03 -9.05329E+03 -1.96709E+03
 -4.93917E+03 -2.95433E+03 -7.19182E+02  1.57329E+03 -1.41474E+03  2.57706E+03 -3.55334E+03  3.65089E+03
 -8.85476E+03 -7.75309E+02 -8.66962E+03 -7.08719E+03 -3.27008E+03 -1.13104E+04  3.72513E+03 -9.24011E+03
  7.18018E+03 -3.51179E+03  5.36869E+03  2.18259E+03  9.12383E+02  3.41777E+03 -3.52934E+03 -9.20296E+02
 -3.33482E+03 -5.38059E+03 -7.49585E+02 -7.57146E+03  4.32220E+03 -7.35651E+03  9.69077E+03 -4.22200E+03
  1.22787E+04  4.21609E+02  9.48778E+03  6.04027E+03  1.95859E+03  8.85024E+03 -5.29018E+03  7.89816E+03
 -7.15231E+03  2.48759E+03 -3.91705E+03 -1.38228E+03  1.71915E+03 -1.34121E+03  4.80829E+03 -8.28254E+02
  4.23697E+03  3.01063E+03  8.20180E+02  6.67707E+03 -4.23240E+03  6.52035E+03 -8.52956E+03  1.48499E+03
 -5.25022E+03 -3.38565E+03  6.13473E+02 -6.64071E+03  4.03324E+03 -2.90661E+03  3.69692E+03  1.04186E+03
  6.94133E+02  3.13142E+03 -4.18735E+03  4.59493E+03 -4.76596E+03  2.15381E+03 -4.48515E+03 -1.09105E+03
 -2.91579E+03 -5.62377E+03  1.33457E+03 -6.98309E+03  5.52793E+03 -4.85666E+03  6.10386E+03  5.06744E+02
  4.44073E+03  5.71697E+03  4.13082E+02  7.27125E+03 -5.27998E+03  4.41791E+03 -5.16245E+03 -7.84130E+02
 -5.51706E+03 -5.27991E+03 -1.51143E+03 -5.30107E+03  2.32550E+03 -4.86128E+03  3.16910E+03 -2.69814E+03
  3.11689E+03 -1.72009E+02  5.65515E+02  1.57616E+03  8.18427E+02 -3.46604E+02  1.13573E+02 -1.77944E+03
  3.37006E+03 -1.03438E+03  4.70096E+03  3.33928E+02  5.40394E+03  3.29631E+03  5.01112E+03  7.30984E+03
 -1.61256E+03  8.40455E+03 -7.29305E+03  7.15571E+03 -9.81191E+03  1.23200E+03 -7.64088E+03 -2.61449E+03
 -3.97632E+03 -5.91037E+03 -4.14037E+02 -5.26410E+03  2.10833E+03 -2.30950E+03  1.76316E+03 -2.04244E+03
  1.63433E+03 -1.06973E+03  1.73375E+03 -2.30025E+03  3.42434E+03 -1.37140E+03  3.38136E+03  4.84308E+02
  4.36071E+03  1.52303E+03  1.57805E+03  3.66424E+03 -1.56737E+03  3.50556E+03 -4.17940E+03  2.70916E+03
 -4.88089E+03 -7.22018E+02 -1.85843E+03 -3.39472E+03 -4.73456E+01 -5.34648E+03  3.29553E+03 -5.17809E+03
  5.17989E+03 -3.22748E+03  6.88391E+03  5.35641E+02  4.93514E+03  4.33002E+03  1.75635E+03  5.74722E+03
 -1.60124E+03  5.73743E+03 -2.59994E+03  2.49747E+03 -1.54857E+03 -1.12336E+03 -5.73108E+02 -8.95662E+02
 -4.32921E+02  9.79445E+00 -1.06562E+03  2.16652E+03 -2.10555E+03  1.73920E+02 -4.30164E+03 -1.09887E+03
 -1.73685E+03 -3.85217E+03  1.12660E+03 -4.66358E+03  2.70265E+03 -3.98700E+03  3.52544E+03 -4.42231E+02
  3.62595E+03  2.05229E+03  2.01289E+03  2.83145E+03 -5.65566E+02  3.59989E+03 -1.98745E+03  2.53387E+03
 -3.59206E+03  3.96850E+02 -3.41618E+03 -2.50018E+03  8.06726E+01 -3.59726E+03  1.52416E+03 -2.36883E+03
  2.40262E+03 -1.48217E+03  1.64878E+03  8.68804E+02 -6.65023E+01  1.65151E+03  4.08589E+02  4.98853E+02
  1.58564E+03  2.72020E+02  9.20096E+02  5.75882E+02  1.26538E+03  2.35904E+03  1.47212E+03  2.21747E+03
 -1.30974E+03  2.69592E+03 -2.18965E+03  3.81286E+03 -2.65409E+03  1.03813E+03 -4.04918E+03 -1.39603E+02
 -1.57193E+03 -3.35896E+03  9.02853E+02 -4.78384E+03  1.31360E+03 -2.15566E+03  2.84130E+03 -7.08054E+02
  2.21041E+03  1.49575E+03  1.35236E+02  2.27680E+03 -7.75034E+02  1.74958E+03 -4.35673E+02  2.22034E+01
 -7.75837E+02 -1.45893E+03  1.38475E+03 -9.26180E+02  1.27509E+03 -1.50630E+03  8.63040E+02  8.73162E-01
  6.02062E+02  3.56326E+01  3.56658E+02 -5.65925E+02 -5.59351E+01  4.83741E+02  1.10582E+03 -4.17482E+01
  1.35931E+02  1.50482E+02  1.69763E+03  5.06278E+02 -1.01173E+02  1.58834E+03  2.15990E+02  2.79107E+03
 -1.29023E+03  8.65131E+02 -2.13917E+03  8.72487E+02 -2.22372E+03 -2.08347E+02  1.68071E+02 -9.63882E+02
  6.75001E+02 -6.35343E+02  8.20363E+02 -1.24139E+03  8.59194E+02  1.23625E+03 -3.63769E+02  3.53435E+02
 -1.03720E+03  9.82975E+02 -1.09832E+03 -9.99515E+02 -7.71307E+02 -2.17747E+03  2.08502E+02 -1.60366E+03
  2.71417E+02 -4.72973E+02  2.83774E+02  2.34386E+02  1.88681E+03 -3.39868E+02  1.45235E+02  1.27190E+03
  9.10068E+01  1.84436E+02 -4.39668E+02 -1.12175E+02  4.84638E+02 -1.15131E+03  1.89123E+03 -8.19447E+02
  5.05330E+02  1.93962E+02  2.47949E+03 -1.59520E+02  1.46181E+03  1.22556E+03 -6.17674E+01  1.60693E+03
 -1.30793E+03  3.18509E+02 -1.23380E+03 -1.16348E+02 -3.36012E+02 -1.06609E+03  7.48369E+02 -3.62341E+02
  1.35286E+03 -6.82915E+02  6.12878E+02  8.26266E+02 -3.80263E+02  4.24823E+02  9.03579E+02  5.49850E+02
 -6.91968E+02  3.88698E+02 -4.67409E+02 -1.28757E+02  1.94936E+02  5.28350E+02 -7.34823E+02  2.47712E+02
 -8.64628E+02  1.15795E+03 -1.41387E+03  4.21225E+02 -1.18602E+03  5.52552E+02 -2.16803E+03 -5.98919E+02
 -1.35507E+03 -2.31199E+03  2.05524E+02 -2.62974E+03  6.94320E+02 -1.71669E+03  2.47278E+03 -9.26384E+02
  2.36480E+03 -4.36959E+02  1.25541E+03  1.33851E+03 -6.99213E+02  1.35977E+03 -4.89518E+02  1.49512E+03
 -1.11619E+03  1.12333E+03 -4.59720E+02  2.81570E+02 -3.69416E+02  3.98834E+02 -1.17072E+03 -2.49311E+02
 -9.50795E+02  8.21192E+01 -9.37345E+02 -1.45454E+02  1.35056E+01 -5.97171E+02 -2.93565E+02 -8.73222E+02
  7.07486E+02 -3.07552E+02  5.65430E+02  2.48451E+02  1.12761E+03  1.04399E+03 -9.61910E+02  1.43135E+03
 -5.36478E+02  1.65167E+03 -1.38133E+03  1.02546E+03 -1.55201E+03  2.68763E+02 -7.17572E+02 -1.23229E+03
 -1.01352E+03 -7.98836E+02 -1.64485E+02 -8.82204E+02  1.62167E+02 -3.05440E+02  5.72665E+02 -4.66384E+02
  5.13987E+02  4.60949E+02  4.09926E+01  1.56612E+02 -4.09807E+02 -7.67533E+01 -7.46504E+01 -1.44375E+02
  4.62243E+02  5.23466E+02  5.66874E+02  7.44350E+02 -5.81193E+01  5.65740E+02  8.20067E+02 -6.54370E+01
 -5.35115E+02  4.85849E+02 -3.62645E+02 -6.92488E+02 -2.28091E+02 -3.20068E+01  3.88156E+02 -1.10779E+03
  2.85945E+01 -1.10144E+03  2.98013E+02 -1.82379E+01 -9.67708E+01 -5.99543E+02  1.60687E+02  5.48269E+02
  4.91497E+02  8.23188E+01 -6.88138E+01  2.77876E+02 -1.12275E+02  3.78656E+02 -5.57248E+02  3.01693E+02
  1.19240E+02 -4.65489E+02 -7.25310E+02  2.89240E+02 -4.24622E+02 -2.33806E+02 -6.05413E+02 -4.90440E+01
 -3.33983E+02  1.53276E+02 -3.08538E+02 -5.62266E+02  1.08531E+03 -1.39276E+03  6.03366E+02 -4.24738E+02
  6.69931E+02 -2.49136E+01 -6.71067E+02  4.16488E+01  4.21287E+02  8.48920E+02  1.66737E+01  8.65445E+02
