 $NMID ID='MM_0lb_SNR400_11hz_g45_26.RAW', FMTDAT='(8E13.5)'
 TRAMP=1., VOLUME=1. $END
  3.09953E+05 -2.01023E+00  3.37906E+05  2.50839E+05  8.44661E+04  3.37885E+05 -1.32822E+05  2.50982E+05
 -1.90979E+05  8.38851E+04 -1.12253E+05 -3.23434E+04  1.70847E+02 -5.01546E+04  5.41512E+04 -5.63374E+02
  3.60213E+04  5.28200E+04 -1.69387E+04  7.62591E+04 -6.09521E+04  6.38135E+04 -8.49186E+04  3.23465E+04
 -8.24511E+04 -1.17268E+04 -5.78509E+04 -5.21257E+04 -1.51009E+04 -6.95429E+04  2.79407E+04 -4.61726E+04
  4.05391E+04  4.39918E+03  1.61099E+04  4.78521E+04 -3.49333E+04  4.74932E+04 -6.72216E+04  4.52949E+02
 -5.40982E+04 -5.71143E+04 -6.96640E+03 -7.78193E+04  3.38150E+04 -5.69279E+04  4.89151E+04 -1.76895E+04
  4.38354E+04  1.16924E+04  3.27902E+04  2.61153E+04  1.59820E+04  3.01560E+04 -5.68615E+03  2.73454E+04
 -2.17888E+04  1.21525E+04 -1.83165E+04 -5.33663E+03  5.70969E+03 -7.30001E+03  2.25695E+04  1.29215E+04
  7.34261E+03  3.63772E+04 -3.26709E+04  3.71073E+04 -6.45314E+04  2.76824E+03 -5.78979E+04 -4.35882E+04
 -1.22677E+04 -6.42163E+04  4.06638E+04 -4.61212E+04  6.00114E+04 -2.61235E+03  3.51114E+04  3.37963E+04
 -5.69530E+03  3.77772E+04 -3.14864E+04  1.71503E+04 -3.18399E+04 -4.39398E+03 -1.76973E+04 -1.15793E+04
 -9.65335E+03 -1.46477E+04 -6.21678E+02 -1.91194E+04  8.54763E+03 -2.31400E+04  1.53914E+04 -1.34847E+04
  1.08542E+04  6.27271E+03 -9.04524E+03  1.28185E+04 -2.20803E+04 -5.30005E+03 -9.00529E+03 -3.50821E+04
  2.38359E+04 -4.51272E+04  5.01651E+04 -1.93459E+04  4.69202E+04  1.98730E+04  1.61443E+04  4.55311E+04
 -1.63574E+04  3.51759E+04 -2.62114E+04  1.73715E+03 -1.06387E+04 -2.87127E+04  2.08705E+04 -3.55540E+04
  4.26732E+04 -9.85323E+03  3.83037E+04  2.43210E+04  1.93427E+04  4.80745E+04 -8.82580E+03  5.27542E+04
 -3.30572E+04  3.58104E+04 -4.45742E+04  1.04690E+04 -4.48368E+04 -1.80193E+04 -2.48617E+04 -3.99130E+04
  7.93908E+03 -3.98994E+04  3.31381E+04 -1.57367E+04  3.14760E+04  1.09384E+04  4.91708E+03  2.03474E+04
 -1.33924E+04  9.59567E+03 -1.02501E+04 -7.36118E+03  5.48366E+03 -1.14574E+04  1.85113E+04  5.53296E+03
  1.39262E+04  2.27466E+04 -5.00152E+03  2.57115E+04 -2.29727E+04  1.29957E+04 -3.00750E+04 -2.96217E+03
 -2.30136E+04 -1.74551E+04 -1.04055E+04 -2.24970E+04  4.63795E+03 -2.30983E+04  1.77918E+04 -2.06891E+04
  2.88390E+04 -1.42986E+04  3.48737E+04  3.98940E+03  2.51773E+04  2.25004E+04  4.15273E+03  3.85170E+04
 -1.85794E+04  3.20074E+04 -2.97407E+04  1.01221E+04 -2.21546E+04 -1.02194E+04 -4.35754E+03 -1.37180E+04
  1.90708E+03 -1.61341E+03 -6.87498E+03  7.33968E+03 -1.86494E+04  4.76427E+03 -1.86122E+04 -7.88111E+03
 -1.06232E+04 -2.08228E+04  5.75849E+03 -2.59497E+04  1.67000E+04 -1.81510E+04  2.09998E+04 -2.08253E+03
  1.31456E+04  1.44090E+04 -1.10399E+03  2.13935E+04 -1.54275E+04  1.17357E+04 -2.10651E+04 -4.59474E+03
 -1.55272E+04 -1.87161E+04 -2.15770E+03 -2.58192E+04  1.09442E+04 -2.16187E+04  2.13226E+04 -9.96696E+03
  1.97215E+04 -3.26273E+01  1.38198E+04  5.33992E+03  7.64986E+03  1.74175E+03  1.13882E+04 -2.08428E+03
  1.98648E+04  2.38044E+03  2.18853E+04  1.60370E+04  1.54121E+04  3.36245E+04 -3.45776E+03  3.86296E+04
 -2.17422E+04  3.18587E+04 -3.64932E+04  1.63618E+04 -3.88973E+04 -2.01001E+03 -3.20106E+04 -2.26008E+04
 -1.29906E+04 -3.27207E+04  1.12529E+04 -2.83080E+04  2.47185E+04 -1.41349E+04  2.17504E+04  6.32739E+03
  8.28671E+03  1.60845E+04 -1.00831E+04  1.41460E+04 -1.86838E+04  3.07334E+03 -1.36956E+04 -1.13805E+04
 -4.97372E+02 -1.74693E+04  9.88754E+03 -1.34165E+04  1.20032E+04 -1.18409E+03  3.13902E+03  7.64831E+03
 -8.13559E+03  3.54451E+03 -7.29843E+03 -6.08531E+03 -1.20851E+03 -1.57676E+04  1.05352E+04 -1.66836E+04
  2.05138E+04 -9.17527E+03  2.22696E+04  3.38831E+03  1.96789E+04  1.52565E+04  8.78449E+03  2.52032E+04
 -3.95620E+03  2.65553E+04 -1.77142E+04  1.69281E+04 -1.86170E+04  3.72794E+03 -1.36516E+04 -5.19364E+03
 -6.06465E+03 -6.10641E+03 -4.40161E+02  1.40922E+03 -2.23564E+03  3.87300E+03 -5.92766E+03  4.08897E+03
 -1.22283E+04 -9.77628E+02 -1.31433E+04 -1.09122E+04 -5.87027E+03 -1.70311E+04  5.19480E+03 -1.36482E+04
  1.10575E+04 -6.06968E+03  8.05264E+03  3.68751E+03  7.92772E+01  5.28187E+03 -6.12596E+03 -1.40300E+02
 -5.84677E+03 -8.36389E+03 -9.80287E+02 -1.30138E+04  7.40940E+03 -1.36639E+04  1.69983E+04 -6.81751E+03
  1.97225E+04  1.80584E+03  1.47602E+04  1.24664E+04  3.01963E+03  1.63212E+04 -8.65214E+03  1.30418E+04
 -1.14532E+04  3.47239E+03 -5.59555E+03 -2.79669E+03  2.45326E+03 -3.93776E+03  7.77343E+03 -6.59202E+02
  5.51487E+03  5.62692E+03  9.32762E+02  1.00034E+04 -7.75250E+03  9.78622E+03 -1.31239E+04  2.39078E+03
 -8.95691E+03 -7.34567E+03 -5.57029E+02 -1.17292E+04  7.03826E+03 -5.82217E+03  7.40198E+03  2.20643E+03
  2.10827E+03  7.76825E+03 -7.55649E+03  9.27913E+03 -1.03058E+04  4.38910E+03 -1.11587E+04 -3.40645E+03
 -6.18400E+03 -1.16611E+04  2.11762E+03 -1.46311E+04  1.21378E+04 -9.01081E+03  1.36356E+04  2.32422E+03
  8.27247E+03  1.12421E+04 -3.86869E+02  1.28572E+04 -9.04490E+03  6.60486E+03 -1.16139E+04 -8.99363E+02
 -8.43384E+03 -8.41420E+03 -1.38687E+03 -1.02101E+04  4.97673E+03 -7.89410E+03  6.09529E+03 -3.18109E+03
  4.58750E+03  1.22987E+03 -6.77613E+02  1.41950E+03 -1.67349E+02 -2.63797E+03  1.74946E+03 -5.41593E+03
  9.48695E+03 -3.85400E+03  1.23539E+04  1.48943E+03  1.23429E+04  8.93370E+03  8.47649E+03  1.64013E+04
 -3.34159E+03  1.89073E+04 -1.49471E+04  1.36283E+04 -2.05019E+04  2.55335E+03 -1.62022E+04 -6.98463E+03
 -7.84091E+03 -1.43899E+04 -1.28094E+03 -1.16274E+04  4.19122E+03 -6.94503E+03  3.04853E+03 -4.19512E+03
  3.07663E+03 -2.56645E+03  3.14503E+03 -2.69276E+03  4.57614E+03 -3.77531E+03  6.39486E+03 -9.17089E+02
  8.64046E+03  2.06698E+03  3.80721E+03  7.59514E+03 -2.23568E+03  8.51767E+03 -9.27838E+03  5.71455E+03
 -1.12323E+04 -6.18844E+02 -7.26770E+03 -7.83257E+03 -9.00356E+02 -1.26779E+04  6.46084E+03 -1.20901E+04
  1.28472E+04 -6.46384E+03  1.51891E+04  2.03399E+03  1.05128E+04  1.06148E+04  1.81422E+03  1.43628E+04
 -5.50732E+03  1.15345E+04 -8.59341E+03  3.49366E+03 -6.09308E+03 -1.40254E+03 -2.34578E+03 -1.88280E+03
 -9.62108E+02 -9.29176E+00 -2.01852E+03  3.11821E+03 -5.39406E+03  2.13091E+03 -7.28212E+03 -1.03225E+03
 -4.81448E+03 -7.74957E+03  4.06712E+02 -1.12386E+04  6.55205E+03 -1.02769E+04  1.03729E+04 -2.77849E+03
  1.11406E+04  5.66110E+03  5.04464E+03  1.05701E+04 -2.66225E+03  1.09899E+04 -7.90692E+03  6.85295E+03
 -9.65292E+03  7.34902E+02 -8.04199E+03 -6.85877E+03 -3.71631E+02 -9.46367E+03  5.58611E+03 -6.81670E+03
  6.96696E+03 -1.91733E+03  5.05048E+03  1.42937E+03  1.76145E+03  2.97993E+03  1.07515E+03  1.77164E+03
  1.94298E+03  1.30657E+03  2.82919E+03  2.22106E+03  3.82795E+03  3.83064E+03  3.55441E+03  6.92065E+03
 -2.72244E+03  9.20789E+03 -7.15274E+03  8.76915E+03 -1.13208E+04  2.96804E+03 -1.18633E+04 -4.09934E+03
 -5.81545E+03 -1.17308E+04  2.10900E+03 -1.27311E+04  6.31037E+03 -7.54327E+03  9.19764E+03 -2.09757E+03
  7.06486E+03  4.83905E+03  1.55047E+03  6.73793E+03 -2.84954E+03  4.72599E+03 -4.91101E+03 -3.42215E+02
 -2.48528E+03 -4.90207E+03  2.28015E+03 -4.90431E+03  4.13501E+03 -1.98138E+03  4.79642E+03  8.37026E+02
  2.76982E+03  1.94643E+03  1.75470E+03  1.80752E+03 -3.40705E+02  2.39014E+03  1.77768E+03 -8.40719E+02
  8.48003E+02  9.91637E+01  4.54872E+03  1.67522E+03  2.94206E+03  5.62096E+03 -1.16778E+03  8.23383E+03
 -5.56879E+03  4.06128E+03 -6.58141E+03  1.55118E+03 -5.73482E+03 -2.13966E+03 -1.93428E+03 -4.14910E+03
  8.27330E+02 -3.88362E+03  3.42634E+03 -1.58420E+03  2.25248E+03  1.44582E+03 -1.04112E+03  3.38760E+03
 -4.90974E+03  2.61385E+03 -4.86711E+03 -2.84972E+03 -3.06023E+03 -5.84364E+03  1.16024E+03 -5.61214E+03
  3.94267E+03 -3.85786E+03  4.13749E+03 -2.46180E+02  4.16025E+03  1.08763E+03  8.87394E+02  3.46960E+03
 -2.08949E+03  1.16882E+03 -2.60487E+03 -1.88292E+03  1.15686E+03 -4.10941E+03  5.86067E+03 -3.17323E+03
  6.92367E+03  1.76966E+02  6.84772E+03  4.09557E+03  2.19164E+03  7.89778E+03 -2.11599E+03  7.22061E+03
 -5.14719E+03  2.57141E+03 -5.34218E+03 -1.29045E+03 -2.86630E+03 -4.53226E+03  7.26041E+02 -4.38081E+03
  4.92906E+03 -2.54556E+03  3.95056E+03  2.24010E+03  1.57880E+03  3.67215E+03 -5.40278E+02  3.61011E+03
 -1.83544E+03  2.89271E+03 -1.18328E+03  3.49380E+02 -7.08554E+02  1.47126E+03 -9.30722E+02  1.05529E+03
 -2.09058E+03  2.89180E+03 -4.54674E+03  2.64867E+03 -7.08310E+03  4.77093E+02 -7.59722E+03 -3.96859E+03
 -4.18933E+03 -9.22732E+03  1.36412E+03 -1.09857E+04  6.00536E+03 -8.02707E+03  9.94174E+03 -3.09067E+03
  8.91440E+03  2.09149E+03  5.75677E+03  5.67498E+03  3.54500E+02  7.09548E+03 -3.17461E+03  4.63128E+03
 -3.66339E+03  1.74410E+03 -2.70885E+03 -5.90718E+02 -7.93667E+02 -4.54964E+02 -5.04865E+02  4.16089E+02
 -1.72204E+03 -1.92701E+02 -2.31702E+03  1.65787E+02 -1.16303E+03 -1.43311E+03  2.59474E+02 -2.20893E+03
  3.53776E+03 -2.06857E+03  3.94451E+03  5.06056E+02  5.24399E+03  3.53932E+03  1.21798E+03  7.28084E+03
 -3.59613E+03  8.20422E+03 -7.93850E+03  4.91440E+03 -8.38872E+03 -1.06450E+03 -6.66906E+03 -5.30913E+03
 -2.50259E+03 -6.20292E+03  2.60667E+03 -6.07088E+03  4.75824E+03 -3.79058E+03  4.75397E+03  4.79082E+02
  2.28876E+03  2.82550E+03 -6.54184E+02  1.55155E+03 -1.42064E+03 -4.84692E+02  1.32016E+02 -1.51456E+03
  2.99514E+03 -1.02221E+03  3.24188E+03  1.11991E+03  1.64879E+03  2.43079E+03  4.36130E+02  3.01810E+03
 -3.32749E+03  2.90399E+03 -4.82699E+03  4.21719E+02 -3.47648E+03 -2.73407E+03 -6.77806E+02 -6.10065E+03
  3.41510E+03 -6.02126E+03  5.54041E+03 -1.77184E+03  4.84247E+03  1.48646E+03  3.57728E+03  4.45988E+03
  6.31550E+02  4.60667E+03 -1.51326E+03  3.93170E+03 -2.15259E+03  1.98307E+03 -2.17584E+03  6.95638E+01
 -2.03436E+03 -8.70986E+01 -2.34991E+03  6.05655E+02 -2.64889E+03  3.24363E+02 -3.90916E+03 -1.35480E+03
 -3.66647E+03 -2.38401E+03 -1.31891E+03 -3.96730E+03  2.14059E+03 -5.17799E+03  4.37161E+03 -1.87896E+03
  5.27508E+03  2.00639E+01  2.04069E+03  2.70156E+03 -3.79137E+02  4.92418E+03 -3.69598E+03  3.34471E+03
