 $NMID ID='MM_0lb_SNR400_11hz_g55_64.RAW', FMTDAT='(8E13.5)'
 TRAMP=1., VOLUME=1. $END
  3.10114E+05  1.29428E+03  3.38537E+05  2.51156E+05  8.44024E+04  3.38602E+05 -1.32335E+05  2.52245E+05
 -1.90448E+05  8.41269E+04 -1.12630E+05 -3.23952E+04  2.65286E+02 -5.04128E+04  5.44393E+04 -6.02689E+02
  3.56487E+04  5.31289E+04 -1.67237E+04  7.61471E+04 -6.04421E+04  6.42585E+04 -8.48226E+04  3.16656E+04
 -8.22319E+04 -1.21738E+04 -5.83265E+04 -5.18278E+04 -1.50635E+04 -7.08548E+04  2.77702E+04 -4.61886E+04
  4.02849E+04  3.66147E+03  1.57626E+04  4.85624E+04 -3.44770E+04  4.84907E+04 -6.83437E+04 -7.50852E+01
 -5.48623E+04 -5.69934E+04 -7.74588E+03 -7.83754E+04  3.41568E+04 -5.66344E+04  4.92248E+04 -1.74403E+04
  4.44750E+04  1.15020E+04  3.29083E+04  2.70282E+04  1.61603E+04  2.98421E+04 -5.99126E+03  2.75410E+04
 -2.21977E+04  1.17050E+04 -1.84575E+04 -5.74476E+03  6.89862E+03 -7.68424E+03  2.32457E+04  1.28516E+04
  7.33083E+03  3.71499E+04 -3.33274E+04  3.65876E+04 -6.52882E+04  1.98863E+03 -5.89407E+04 -4.40706E+04
 -1.28775E+04 -6.56890E+04  4.16377E+04 -4.63681E+04  5.93270E+04 -2.76941E+03  3.53741E+04  3.48958E+04
 -5.56035E+03  3.86262E+04 -3.11425E+04  1.81135E+04 -3.26526E+04 -3.73790E+03 -1.86250E+04 -1.19828E+04
 -9.85999E+03 -1.48293E+04 -4.65395E+02 -1.94076E+04  8.31889E+03 -2.29110E+04  1.61102E+04 -1.23548E+04
  1.09894E+04  6.24007E+03 -9.46311E+03  1.29239E+04 -2.29864E+04 -5.50193E+03 -8.85533E+03 -3.68577E+04
  2.45460E+04 -4.55744E+04  5.12910E+04 -2.08985E+04  4.75506E+04  2.05874E+04  1.62676E+04  4.60471E+04
 -1.72216E+04  3.48129E+04 -2.63233E+04  3.04223E+03 -1.15602E+04 -2.90863E+04  2.16248E+04 -3.61446E+04
  4.36647E+04 -1.00955E+04  3.93555E+04  2.46184E+04  2.09228E+04  4.96975E+04 -8.34343E+03  5.45864E+04
 -3.47216E+04  3.70298E+04 -4.68179E+04  1.04871E+04 -4.64700E+04 -1.76674E+04 -2.49661E+04 -4.04724E+04
  8.41754E+03 -4.11760E+04  3.32740E+04 -1.63838E+04  3.11062E+04  1.11662E+04  4.70993E+03  2.07675E+04
 -1.35645E+04  9.27876E+03 -1.12986E+04 -8.05320E+03  5.33474E+03 -1.13372E+04  1.99009E+04  6.01211E+03
  1.43511E+04  2.26372E+04 -5.27627E+03  2.64088E+04 -2.29243E+04  1.32722E+04 -2.98151E+04 -4.34232E+03
 -2.36476E+04 -1.81219E+04 -1.10170E+04 -2.36826E+04  4.41915E+03 -2.39302E+04  1.83659E+04 -2.12935E+04
  3.04497E+04 -1.40739E+04  3.67802E+04  4.24429E+03  2.59423E+04  2.36636E+04  4.27264E+03  3.96024E+04
 -1.90727E+04  3.27336E+04 -3.04591E+04  1.14832E+04 -2.20163E+04 -1.00498E+04 -4.83693E+03 -1.25022E+04
  1.27401E+03 -1.78740E+03 -6.61898E+03  7.38634E+03 -1.93064E+04  5.14672E+03 -1.80669E+04 -8.43507E+03
 -1.14879E+04 -2.16729E+04  5.37681E+03 -2.70517E+04  1.78920E+04 -1.91453E+04  2.13879E+04 -1.90819E+03
  1.32200E+04  1.51550E+04 -8.21090E+02  2.22735E+04 -1.50171E+04  1.27440E+04 -2.17247E+04 -5.03493E+03
 -1.51630E+04 -1.98524E+04 -2.18468E+03 -2.77160E+04  1.15742E+04 -2.07673E+04  2.17691E+04 -1.09963E+04
  2.13361E+04 -4.12602E+02  1.49081E+04  4.72820E+03  8.60569E+03  3.99698E+02  1.14067E+04 -1.80653E+03
  2.10189E+04  2.70164E+03  2.34274E+04  1.69074E+04  1.60032E+04  3.47596E+04 -2.65625E+03  4.13921E+04
 -2.36608E+04  3.40022E+04 -3.88374E+04  1.80927E+04 -4.12677E+04 -4.01226E+03 -3.41434E+04 -2.42531E+04
 -1.35203E+04 -3.44765E+04  1.19920E+04 -2.98430E+04  2.57349E+04 -1.42635E+04  2.28914E+04  7.17466E+03
  8.24534E+03  1.71024E+04 -1.02699E+04  1.45992E+04 -1.86791E+04  2.12855E+03 -1.51435E+04 -1.22968E+04
 -2.25636E+02 -1.84594E+04  9.89685E+03 -1.36348E+04  1.24803E+04 -1.37409E+03  2.98664E+03  7.32262E+03
 -8.26291E+03  3.07045E+03 -8.69354E+03 -6.76610E+03 -1.42068E+03 -1.69559E+04  1.07540E+04 -1.78708E+04
  1.99663E+04 -1.00468E+04  2.36620E+04  3.60448E+03  2.09844E+04  1.64152E+04  8.94312E+03  2.58404E+04
 -5.02108E+03  2.92229E+04 -1.81327E+04  1.74630E+04 -2.01851E+04  3.40395E+03 -1.40543E+04 -6.08651E+03
 -5.76080E+03 -6.60993E+03 -7.77041E+02  6.77340E+02 -2.18533E+03  3.04672E+03 -7.02412E+03  5.74458E+03
 -1.32903E+04 -8.28070E+02 -1.39191E+04 -1.09668E+04 -5.08922E+03 -1.81078E+04  6.36248E+03 -1.46409E+04
  1.23656E+04 -6.78434E+03  7.89087E+03  3.80438E+03  1.64895E+02  5.63615E+03 -6.72400E+03 -6.36295E+01
 -6.90268E+03 -9.13873E+03 -1.40797E+03 -1.36790E+04  8.20762E+03 -1.48893E+04  1.86599E+04 -8.13336E+03
  2.01379E+04  1.57498E+03  1.50697E+04  1.40120E+04  2.98660E+03  1.66012E+04 -8.88313E+03  1.34157E+04
 -1.12915E+04  4.37756E+03 -4.75933E+03 -3.69629E+03  2.37484E+03 -4.55842E+03  7.26697E+03 -6.04614E+01
  6.59905E+03  6.29174E+03  7.84692E+02  1.18416E+04 -8.03657E+03  1.08337E+04 -1.43096E+04  3.11496E+03
 -8.87398E+03 -7.84116E+03  4.53596E+02 -1.16784E+04  7.63999E+03 -6.30704E+03  8.54272E+03  3.05267E+03
  1.39545E+03  8.50890E+03 -7.22590E+03  1.02116E+04 -1.17515E+04  5.07569E+03 -1.20779E+04 -4.35147E+03
 -7.08808E+03 -1.39863E+04  3.68882E+03 -1.56459E+04  1.37817E+04 -9.35782E+03  1.42770E+04  3.17549E+03
  9.38127E+03  1.24139E+04 -1.39530E+03  1.40703E+04 -1.01476E+04  7.99929E+03 -1.09630E+04 -1.26912E+03
 -1.01869E+04 -8.91841E+03 -1.87655E+03 -1.05349E+04  5.43313E+03 -8.01034E+03  6.02831E+03 -3.17016E+03
  4.64410E+03  1.37209E+03 -9.79697E+02  1.10426E+03 -1.54276E+02 -2.11947E+03  2.32924E+03 -6.62304E+03
  9.72216E+03 -4.49610E+03  1.40309E+04  2.08919E+03  1.34122E+04  9.45435E+03  9.03302E+03  1.83949E+04
 -4.52876E+03  1.94954E+04 -1.75882E+04  1.56781E+04 -2.16682E+04  2.62714E+03 -1.79419E+04 -7.88009E+03
 -8.86526E+03 -1.49450E+04  1.38394E+02 -1.23942E+04  4.35552E+03 -6.55844E+03  3.96564E+03 -4.33438E+03
  3.59960E+03 -3.24512E+03  3.01010E+03 -3.55661E+03  5.01771E+03 -3.02473E+03  6.74622E+03 -7.30343E+02
  9.75128E+03  3.21744E+03  3.74721E+03  6.53079E+03 -2.54790E+03  8.92526E+03 -9.36690E+03  7.38967E+03
 -1.28883E+04 -9.01099E+02 -7.85335E+03 -7.93595E+03 -1.37862E+03 -1.27510E+04  7.72012E+03 -1.29811E+04
  1.34561E+04 -7.39318E+03  1.65808E+04  2.73539E+03  1.17010E+04  1.13363E+04  1.44456E+03  1.50649E+04
 -6.89771E+03  1.20716E+04 -8.33644E+03  4.65083E+03 -6.08573E+03 -2.10976E+03 -2.06738E+03 -1.71527E+03
 -8.87439E+02  4.08128E+02 -2.05299E+03  2.87100E+03 -5.39846E+03  2.14163E+03 -8.97462E+03 -6.82005E+02
 -6.38093E+03 -8.32631E+03  5.50018E+02 -1.18416E+04  7.07928E+03 -1.10136E+04  1.22812E+04 -3.65288E+03
  1.21713E+04  5.57868E+03  6.28142E+03  1.06023E+04 -1.99816E+03  1.16874E+04 -8.51457E+03  7.35330E+03
 -1.15163E+04  3.75574E+02 -8.53051E+03 -7.93141E+03 -1.10222E+03 -9.98681E+03  5.41812E+03 -7.56623E+03
  7.53057E+03 -1.90021E+03  4.90048E+03  2.48862E+03  2.68913E+03  3.31672E+03  1.91904E+03  1.24032E+03
  2.20733E+03  3.90176E+02  3.40084E+03  1.33856E+03  3.06463E+03  3.80687E+03  3.25868E+03  6.25643E+03
 -3.52715E+03  9.41407E+03 -8.38834E+03  9.61242E+03 -1.18833E+04  2.63657E+03 -1.24988E+04 -5.03232E+03
 -6.00897E+03 -1.19660E+04  2.03466E+03 -1.29053E+04  6.75366E+03 -8.02472E+03  9.54874E+03 -2.88751E+03
  7.69538E+03  4.62375E+03  2.75619E+03  6.62761E+03 -3.64589E+03  4.50409E+03 -3.80068E+03 -5.44452E+02
 -1.51363E+03 -5.11040E+03  2.40206E+03 -5.83176E+03  4.95191E+03 -2.82460E+03  4.73265E+03  5.37681E+01
  3.01530E+03  2.57651E+03  8.16703E+02  1.57383E+03 -8.85149E+02  2.01800E+03  2.05130E+03 -3.60590E+02
  1.74824E+03 -1.13745E+02  4.96770E+03  1.88037E+03  2.77342E+03  6.62191E+03 -7.89955E+02  8.97097E+03
 -6.12745E+03  5.79488E+03 -6.94075E+03  1.53986E+03 -6.73282E+03 -1.84098E+03 -3.38777E+03 -4.54011E+03
  1.43630E+03 -3.98493E+03  2.68606E+03 -1.89597E+03  2.47731E+03  2.45687E+03 -1.09470E+03  4.12806E+03
 -4.99198E+03  2.69958E+03 -5.36594E+03 -3.23578E+03 -3.36138E+03 -6.43357E+03  1.00892E+03 -5.83835E+03
  3.89696E+03 -4.04597E+03  4.93003E+03 -4.10027E+02  4.00226E+03  1.04926E+03  3.37328E+02  3.29749E+03
 -1.85663E+03  6.57192E+02 -3.02411E+03 -2.81474E+03  1.15615E+03 -4.87262E+03  5.93887E+03 -3.55072E+03
  7.46287E+03  9.60686E+02  7.87197E+03  4.16593E+03  2.29924E+03  7.70943E+03 -2.77064E+03  7.07551E+03
 -6.61199E+03  3.24953E+03 -6.66146E+03 -6.20920E+02 -3.43412E+03 -3.68886E+03  1.55247E+03 -4.38199E+03
  4.52541E+03 -2.12392E+03  4.55926E+03  2.29863E+03  1.56032E+03  4.54567E+03 -2.17564E+01  2.97015E+03
 -1.90846E+03  1.52115E+03 -1.37911E+03  5.03582E+02 -4.13873E+02  6.74692E+02 -4.16032E+02  2.24472E+03
 -2.14180E+03  2.91735E+03 -5.36462E+03  3.03230E+03 -7.75923E+03  7.63718E+02 -8.64075E+03 -4.61841E+03
 -4.39477E+03 -1.02061E+04  2.31658E+03 -1.15619E+04  6.73192E+03 -9.13152E+03  1.13687E+04 -3.47384E+03
  9.74787E+03  2.01358E+03  5.64856E+03  7.19508E+03  3.86787E+02  7.30316E+03 -2.58678E+03  5.89235E+03
 -4.28218E+03  1.68556E+03 -2.46496E+03 -5.86773E+02 -1.41483E+03 -1.28217E+03 -5.60653E+02 -8.50474E+02
 -1.61252E+03  5.36207E+02 -1.41572E+03 -3.05574E+02 -2.31501E+02 -2.32881E+03  4.54189E+01 -3.58680E+03
  3.24279E+03 -2.25187E+03  4.02869E+03  1.42489E+02  5.71304E+03  3.46277E+03  1.61389E+03  7.42252E+03
 -3.94778E+03  8.71170E+03 -8.51381E+03  4.89582E+03 -8.72857E+03 -7.45755E+02 -6.33820E+03 -5.94572E+03
 -2.52397E+03 -8.36481E+03  1.61031E+03 -7.13429E+03  4.83877E+03 -4.09330E+03  4.66475E+03  7.17346E+02
  2.75769E+03  2.36669E+03 -4.78580E+02  2.14511E+03 -1.91762E+03 -3.24736E+02 -2.43565E+02 -1.70050E+03
  1.65818E+03 -1.30994E+03  2.45267E+03  1.29290E+03  1.62307E+03  2.61017E+03  4.34594E+02  3.38298E+03
 -2.80677E+03  2.59951E+03 -4.97738E+03  3.16691E+02 -3.80868E+03 -3.86954E+03 -3.57832E+02 -6.43501E+03
  3.68993E+03 -4.89026E+03  5.36733E+03 -8.60871E+02  5.70041E+03  1.16937E+03  3.54660E+03  4.51009E+03
  1.05646E+03  5.15124E+03 -2.07963E+03  3.95708E+03 -2.94496E+03  2.21397E+03 -2.82244E+03  5.32004E+02
 -8.74974E+02 -6.45021E+02 -2.20627E+03  1.87162E+03 -2.50144E+03  7.82191E+02 -3.67700E+03 -5.18123E+02
 -3.61182E+03 -2.39126E+03 -1.11122E+03 -4.90054E+03  1.66774E+03 -4.98184E+03  4.24845E+03 -2.79398E+03
  4.91624E+03  9.15275E+02  2.08153E+03  3.72357E+03 -5.97007E+02  4.54545E+03 -4.04194E+03  3.24033E+03
