 $NMID ID='MM_0lb_SNR400_11hz_g55_94.RAW', FMTDAT='(8E13.5)'
 TRAMP=1., VOLUME=1. $END
  3.09822E+05  4.26623E+02  3.37643E+05  2.50722E+05  8.49948E+04  3.37771E+05 -1.32622E+05  2.51647E+05
 -1.91229E+05  8.34520E+04 -1.11816E+05 -3.19891E+04  2.69381E+02 -5.08263E+04  5.37960E+04 -9.58094E+02
  3.57463E+04  5.24925E+04 -1.70797E+04  7.55037E+04 -6.08522E+04  6.37522E+04 -8.50371E+04  3.20297E+04
 -8.20429E+04 -1.09579E+04 -5.87627E+04 -5.13640E+04 -1.53063E+04 -7.05221E+04  2.81752E+04 -4.64062E+04
  4.04645E+04  3.88753E+03  1.68478E+04  4.88495E+04 -3.44646E+04  4.80869E+04 -6.81143E+04 -2.11176E+02
 -5.50371E+04 -5.70914E+04 -6.97049E+03 -7.79019E+04  3.44274E+04 -5.69737E+04  5.00746E+04 -1.83301E+04
  4.50608E+04  1.14911E+04  3.20327E+04  2.60991E+04  1.60026E+04  3.06531E+04 -5.68865E+03  2.73433E+04
 -2.29993E+04  1.25093E+04 -1.83447E+04 -5.36871E+03  6.22363E+03 -7.61092E+03  2.27523E+04  1.34812E+04
  7.19743E+03  3.70029E+04 -3.39744E+04  3.66783E+04 -6.52876E+04  1.77451E+03 -5.83850E+04 -4.46874E+04
 -1.25061E+04 -6.50790E+04  4.12761E+04 -4.73003E+04  6.03941E+04 -2.56894E+03  3.58639E+04  3.39203E+04
 -6.77008E+03  3.89749E+04 -3.11719E+04  1.82765E+04 -3.24219E+04 -3.82741E+03 -1.80871E+04 -1.18970E+04
 -8.98917E+03 -1.45260E+04 -5.10405E+02 -1.91780E+04  7.92164E+03 -2.34843E+04  1.54377E+04 -1.33585E+04
  1.09702E+04  6.36138E+03 -9.20638E+03  1.32286E+04 -2.28953E+04 -5.74765E+03 -8.56029E+03 -3.58796E+04
  2.39494E+04 -4.55728E+04  5.08052E+04 -2.02746E+04  4.79166E+04  1.95884E+04  1.69289E+04  4.66440E+04
 -1.69402E+04  3.59060E+04 -2.65259E+04  2.19423E+03 -1.05187E+04 -2.87309E+04  2.21380E+04 -3.60681E+04
  4.33677E+04 -1.06971E+04  3.95205E+04  2.49332E+04  1.99410E+04  4.88922E+04 -8.77787E+03  5.47458E+04
 -3.39718E+04  3.75930E+04 -4.61666E+04  1.02805E+04 -4.66953E+04 -1.77673E+04 -2.47525E+04 -4.12615E+04
  8.35014E+03 -4.17163E+04  3.36848E+04 -1.70473E+04  3.13022E+04  1.19387E+04  5.08726E+03  2.01266E+04
 -1.35044E+04  9.77992E+03 -1.13432E+04 -7.94576E+03  5.97639E+03 -1.07807E+04  1.81389E+04  5.97645E+03
  1.47819E+04  2.26017E+04 -5.79224E+03  2.69170E+04 -2.34281E+04  1.39602E+04 -3.03710E+04 -2.67386E+03
 -2.35017E+04 -1.80716E+04 -1.15301E+04 -2.38796E+04  4.12248E+03 -2.45669E+04  1.90383E+04 -2.10640E+04
  3.06060E+04 -1.37825E+04  3.66712E+04  3.97764E+03  2.63194E+04  2.31902E+04  4.58177E+03  3.93448E+04
 -1.94501E+04  3.30974E+04 -2.99794E+04  1.15822E+04 -2.18446E+04 -1.06240E+04 -4.10927E+03 -1.33785E+04
  4.02137E+02 -1.41526E+03 -6.33614E+03  7.38128E+03 -1.90014E+04  5.44142E+03 -1.92370E+04 -9.92650E+03
 -1.15140E+04 -2.21964E+04  5.74390E+03 -2.59758E+04  1.80285E+04 -1.89419E+04  2.05987E+04 -1.52978E+03
  1.39505E+04  1.59629E+04 -9.37203E+02  2.14377E+04 -1.59373E+04  1.21983E+04 -2.20672E+04 -4.75869E+03
 -1.57995E+04 -1.95017E+04 -2.05725E+03 -2.66492E+04  1.16958E+04 -2.21529E+04  2.11698E+04 -1.06130E+04
  2.05563E+04 -4.22582E+02  1.49926E+04  4.60344E+03  8.14620E+03  1.95756E+03  1.15815E+04 -2.59822E+03
  2.15248E+04  3.03391E+03  2.41052E+04  1.69477E+04  1.61615E+04  3.52743E+04 -2.76326E+03  4.17090E+04
 -2.41730E+04  3.42458E+04 -3.84879E+04  1.71068E+04 -4.17160E+04 -3.47824E+03 -3.32974E+04 -2.35854E+04
 -1.30103E+04 -3.41903E+04  1.22766E+04 -3.08162E+04  2.55791E+04 -1.45766E+04  2.21926E+04  7.64219E+03
  7.89741E+03  1.69806E+04 -1.04785E+04  1.44306E+04 -1.88276E+04  2.47140E+03 -1.44912E+04 -1.22406E+04
 -5.65179E+00 -1.83715E+04  9.81838E+03 -1.34105E+04  1.22408E+04 -1.05934E+03  2.55918E+03  8.93200E+03
 -8.82901E+03  2.78095E+03 -8.47152E+03 -6.78542E+03 -1.21632E+03 -1.71568E+04  1.14200E+04 -1.86799E+04
  2.11648E+04 -1.01498E+04  2.38851E+04  3.65462E+03  2.01685E+04  1.67216E+04  8.82519E+03  2.59803E+04
 -5.21587E+03  2.87833E+04 -1.83721E+04  1.70728E+04 -2.10208E+04  3.81785E+03 -1.38657E+04 -5.66927E+03
 -5.78242E+03 -5.99808E+03 -8.35741E+02  5.76808E+02 -2.15510E+03  3.24435E+03 -6.72189E+03  5.06298E+03
 -1.25706E+04 -7.82555E+02 -1.40220E+04 -1.11996E+04 -6.08646E+03 -1.81639E+04  6.02654E+03 -1.50890E+04
  1.16841E+04 -5.48306E+03  7.63702E+03  4.29245E+03  3.45413E+02  6.06654E+03 -6.57813E+03 -9.51299E+01
 -6.67956E+03 -8.49533E+03 -8.29962E+02 -1.42003E+04  8.38556E+03 -1.47688E+04  1.83072E+04 -8.46757E+03
  2.10727E+04  1.46997E+03  1.54945E+04  1.24447E+04  3.22747E+03  1.63631E+04 -8.85182E+03  1.41572E+04
 -1.12608E+04  4.06172E+03 -6.47637E+03 -3.12072E+03  1.61722E+03 -3.92728E+03  7.97223E+03 -8.64432E+02
  6.86142E+03  6.36667E+03  1.31406E+03  1.08838E+04 -8.34655E+03  1.00433E+04 -1.39971E+04  2.81979E+03
 -1.05583E+04 -7.58837E+03 -2.71745E+01 -1.20438E+04  7.31129E+03 -5.72194E+03  7.73960E+03  3.17988E+03
  1.40321E+03  8.44249E+03 -6.40959E+03  1.00872E+04 -1.17958E+04  3.85637E+03 -1.22018E+04 -4.92946E+03
 -7.11957E+03 -1.38248E+04  3.07701E+03 -1.57842E+04  1.39193E+04 -1.02647E+04  1.45327E+04  1.94961E+03
  8.55192E+03  1.12770E+04 -1.60780E+03  1.45338E+04 -1.04951E+04  7.32869E+03 -1.11266E+04 -1.17346E+03
 -9.60760E+03 -8.87578E+03 -6.14987E+02 -1.01837E+04  4.81459E+03 -8.39144E+03  7.17550E+03 -3.73014E+03
  4.77763E+03  1.61025E+03 -1.01134E+03  2.20512E+03 -1.45130E+01 -2.45302E+03  1.44872E+03 -5.45861E+03
  1.00143E+04 -4.69747E+03  1.35639E+04  1.61266E+03  1.31322E+04  9.46844E+03  8.99222E+03  1.82525E+04
 -3.63338E+03  2.08242E+04 -1.70243E+04  1.50420E+04 -2.17021E+04  3.27691E+03 -1.79821E+04 -7.50285E+03
 -8.89500E+03 -1.48916E+04  2.17072E+02 -1.24525E+04  3.93942E+03 -7.28497E+03  3.85207E+03 -4.73384E+03
  2.44056E+03 -3.47533E+03  2.89700E+03 -2.92376E+03  5.31495E+03 -3.49520E+03  6.71240E+03 -8.41324E+02
  9.12607E+03  2.21580E+03  5.21696E+03  8.15280E+03 -2.85987E+03  9.62055E+03 -9.67689E+03  7.35434E+03
 -1.25487E+04 -6.64552E+02 -7.29251E+03 -8.71891E+03 -7.50298E+02 -1.39072E+04  7.42024E+03 -1.38630E+04
  1.37263E+04 -7.36154E+03  1.63367E+04  1.94988E+03  1.16868E+04  1.12255E+04  2.06608E+03  1.47318E+04
 -6.07506E+03  1.20463E+04 -8.62560E+03  4.16078E+03 -6.67691E+03 -1.44363E+03 -2.72436E+03 -2.06336E+03
 -9.70996E+02  2.95947E+02 -2.30389E+03  3.43472E+03 -4.69270E+03  1.82689E+03 -8.66922E+03 -7.49082E+02
 -5.68646E+03 -8.13018E+03 -7.19006E+01 -1.19181E+04  8.36698E+03 -1.11110E+04  1.25280E+04 -4.35830E+03
  1.14366E+04  4.92640E+03  5.36436E+03  1.11565E+04 -2.52858E+03  1.18982E+04 -9.03275E+03  7.18989E+03
 -1.11871E+04  4.08782E+02 -9.47965E+03 -7.23689E+03 -7.91017E+02 -1.01163E+04  5.62897E+03 -7.49730E+03
  7.72702E+03 -2.50184E+03  5.50788E+03  1.87800E+03  1.07885E+03  3.75388E+03  1.35400E+03  2.05713E+03
  2.72175E+03  1.06277E+03  3.55076E+03  1.80347E+03  3.18890E+03  4.38738E+03  3.65324E+03  5.77885E+03
 -2.44671E+03  9.78921E+03 -7.63640E+03  9.78904E+03 -1.21021E+04  3.08402E+03 -1.22628E+04 -4.49429E+03
 -5.94358E+03 -1.11396E+04  1.86545E+03 -1.25736E+04  7.22192E+03 -8.08133E+03  9.22118E+03 -2.27051E+03
  7.75637E+03  4.74500E+03  2.18728E+03  6.88010E+03 -3.59370E+03  4.17123E+03 -4.49092E+03 -6.70887E+02
 -2.20949E+03 -5.24694E+03  2.54825E+03 -5.89316E+03  5.28260E+03 -2.60051E+03  4.52697E+03  1.08621E+03
  2.52831E+03  2.68911E+03  2.00143E+03  2.39755E+03 -2.06006E+02  2.26304E+03  1.51490E+03 -9.14472E+02
  2.06342E+03 -5.85096E+02  4.01600E+03  2.17219E+03  2.63006E+03  6.64787E+03 -1.14213E+03  7.93983E+03
 -5.61903E+03  5.44739E+03 -7.32726E+03  2.21156E+03 -6.54323E+03 -2.41459E+03 -2.12384E+03 -4.20392E+03
  6.30874E+02 -4.45352E+03  2.81580E+03 -2.48778E+03  2.54994E+03  2.66298E+03 -9.35896E+02  3.62511E+03
 -5.46125E+03  2.35760E+03 -5.16453E+03 -2.83013E+03 -2.28358E+03 -6.98975E+03  1.00699E+03 -6.34187E+03
  3.45351E+03 -3.70066E+03  4.27529E+03 -3.00489E+02  4.85267E+03  1.96760E+03  1.01661E+03  2.55319E+03
 -2.06204E+03  6.68539E+02 -2.98907E+03 -1.77553E+03  1.09135E+03 -4.79513E+03  5.71755E+03 -3.56782E+03
  7.40418E+03  2.90353E+01  7.92726E+03  5.58356E+03  1.92926E+03  7.77485E+03 -3.07907E+03  6.87895E+03
 -6.16011E+03  3.50467E+03 -6.61746E+03 -6.90386E+02 -3.45915E+03 -4.84794E+03  1.19553E+03 -4.58982E+03
  5.20725E+03 -2.15413E+03  3.47247E+03  1.71669E+03  9.18675E+02  4.24689E+03 -1.33451E+03  3.71068E+03
 -1.50433E+03  2.39617E+03 -9.46876E+02  9.64752E+02 -4.42281E+02  5.21228E+02 -1.24130E+03  1.75123E+03
 -1.96604E+03  2.44668E+03 -4.74666E+03  2.30535E+03 -7.54207E+03 -6.00957E+02 -8.48781E+03 -5.58778E+03
 -4.71344E+03 -1.05639E+04  1.97761E+03 -1.17872E+04  7.15774E+03 -9.07455E+03  1.00995E+04 -3.92377E+03
  9.95641E+03  9.76796E+02  5.73669E+03  7.15875E+03  1.31871E+02  6.89645E+03 -3.54507E+03  5.95727E+03
 -4.36652E+03  3.00579E+03 -3.47328E+03 -9.99749E+02 -8.11095E+02  6.67727E+01 -5.81467E+02  2.09493E+02
 -1.15280E+03 -3.18507E+02 -1.72286E+03 -8.96049E+01 -5.94790E+02 -1.58010E+03 -5.98893E+00 -2.42096E+03
  3.61136E+03 -2.73899E+03  3.54945E+03  8.50436E+02  5.37604E+03  3.48887E+03  2.79036E+02  7.25307E+03
 -3.80599E+03  8.80471E+03 -8.21902E+03  4.96171E+03 -8.92673E+03 -3.81378E+02 -6.05663E+03 -5.35445E+03
 -3.11512E+03 -7.53039E+03  1.66163E+03 -6.52802E+03  4.51389E+03 -3.95013E+03  4.36243E+03 -7.63447E+01
  1.81106E+03  2.80228E+03 -5.77515E+02  1.75791E+03 -1.11424E+03 -2.67384E+01 -3.53179E+02 -1.49508E+03
  2.80165E+03 -9.31087E+02  3.06977E+03  1.21556E+03  1.80278E+03  3.70232E+03  2.16612E+02  3.59391E+03
 -3.48323E+03  3.57392E+03 -5.58076E+03  7.63911E+01 -4.61922E+03 -3.64944E+03 -1.52384E+03 -6.35767E+03
  3.61354E+03 -4.92869E+03  5.11422E+03 -1.85787E+03  5.99021E+03  1.53830E+03  3.75959E+03  4.70656E+03
  7.99796E+02  4.42338E+03 -2.07925E+03  3.64966E+03 -3.14651E+03  2.08198E+03 -2.11615E+03  2.66014E+02
 -7.08156E+02 -8.15967E+02 -1.19407E+03  5.69817E+02 -2.70534E+03  2.61716E+02 -2.84660E+03 -4.70123E+02
 -3.81525E+03 -2.09239E+03 -1.14090E+03 -5.14552E+03  2.57896E+03 -5.21313E+03  4.77909E+03 -2.39499E+03
  4.34159E+03  3.03798E+02  2.17875E+03  3.17419E+03 -3.98028E+02  4.82684E+03 -3.61253E+03  2.99214E+03
