 $NMID ID='MM_0lb_SNR400_17hz_g50_41.RAW', FMTDAT='(8E13.5)'
 TRAMP=1., VOLUME=1. $END
  3.09575E+05  8.76356E+02  3.37825E+05  2.50304E+05  8.43524E+04  3.38116E+05 -1.32269E+05  2.50175E+05
 -1.90735E+05  8.27006E+04 -1.10945E+05 -3.28750E+04  1.02129E+03 -5.04735E+04  5.36721E+04 -3.15373E+02
  3.52044E+04  5.29631E+04 -1.65084E+04  7.50708E+04 -6.04374E+04  6.30794E+04 -8.33848E+04  3.14645E+04
 -8.00373E+04 -1.14046E+04 -5.63906E+04 -5.04032E+04 -1.45164E+04 -6.88490E+04  2.69607E+04 -4.54472E+04
  3.91796E+04  3.98795E+03  1.60492E+04  4.73813E+04 -3.40593E+04  4.62621E+04 -6.56112E+04 -6.47310E+02
 -5.30617E+04 -5.54998E+04 -6.65814E+03 -7.61627E+04  3.36901E+04 -5.36583E+04  4.67247E+04 -1.66652E+04
  4.28905E+04  1.13719E+04  3.12538E+04  2.49396E+04  1.50012E+04  2.89601E+04 -5.04985E+03  2.65005E+04
 -2.18448E+04  1.23893E+04 -1.88224E+04 -4.50122E+03  5.01518E+03 -7.99225E+03  2.21891E+04  1.17375E+04
  7.21939E+03  3.42039E+04 -3.10874E+04  3.49811E+04 -6.23871E+04  1.60731E+03 -5.60801E+04 -4.22012E+04
 -1.28913E+04 -6.19277E+04  3.84369E+04 -4.41719E+04  5.73121E+04 -1.82851E+03  3.30384E+04  3.12833E+04
 -6.06986E+03  3.41684E+04 -2.92591E+04  1.46687E+04 -2.85032E+04 -5.20824E+03 -1.47264E+04 -1.05791E+04
 -7.59254E+03 -1.15799E+04 -1.10102E+03 -1.69934E+04  7.34573E+03 -2.24276E+04  1.54980E+04 -1.36831E+04
  1.10556E+04  4.53830E+03 -6.68040E+03  1.25223E+04 -2.01246E+04 -3.18835E+03 -8.28473E+03 -3.17408E+04
  2.17412E+04 -4.27706E+04  4.62408E+04 -1.88884E+04  4.35116E+04  1.86548E+04  1.51192E+04  4.29165E+04
 -1.54560E+04  3.23922E+04 -2.46125E+04  1.06083E+03 -9.03705E+03 -2.63303E+04  2.06567E+04 -3.19952E+04
  3.95027E+04 -8.31194E+03  3.27588E+04  2.31368E+04  1.65921E+04  4.42651E+04 -8.21918E+03  4.73571E+04
 -2.97009E+04  3.18060E+04 -3.88676E+04  9.20982E+03 -3.99858E+04 -1.59618E+04 -2.23588E+04 -3.55551E+04
  7.46492E+03 -3.55841E+04  2.95285E+04 -1.34845E+04  2.72596E+04  1.02879E+04  3.53950E+03  1.79155E+04
 -1.33099E+04  7.41829E+03 -9.40834E+03 -7.25889E+03  5.97636E+03 -1.03829E+04  1.77134E+04  6.60804E+03
  1.27593E+04  2.15826E+04 -6.48632E+03  2.43025E+04 -2.24736E+04  1.01567E+04 -2.63362E+04 -5.59293E+03
 -1.78847E+04 -1.69046E+04 -7.05302E+03 -1.79224E+04  3.42782E+03 -1.64719E+04  1.37371E+04 -1.64026E+04
  2.33184E+04 -1.19996E+04  2.96993E+04  1.42257E+03  2.24655E+04  1.75084E+04  5.01957E+03  3.38260E+04
 -1.70869E+04  2.91097E+04 -2.72090E+04  9.84643E+03 -2.02665E+04 -1.07645E+04 -4.23110E+03 -1.41864E+04
  2.01626E+03 -3.58026E+03 -3.62107E+03  5.88740E+03 -1.40568E+04  5.49511E+03 -1.49373E+04 -5.69364E+03
 -9.12809E+03 -1.70332E+04  4.95447E+03 -2.04246E+04  1.41572E+04 -1.52279E+04  1.59677E+04 -1.99194E+03
  1.01336E+04  1.19902E+04 -1.04414E+03  1.63599E+04 -1.13418E+04  9.40526E+03 -1.64766E+04 -3.71481E+03
 -1.26296E+04 -1.58992E+04 -1.93970E+03 -2.11326E+04  9.11851E+03 -1.63827E+04  1.70029E+04 -7.73522E+03
  1.62910E+04  1.04060E+03  1.08287E+04  4.57176E+03  5.95324E+03  5.87655E+02  7.87610E+03 -8.13006E+02
  1.54090E+04  2.91022E+03  1.68360E+04  1.42310E+04  1.05964E+04  2.65297E+04 -3.57182E+03  2.94643E+04
 -1.69477E+04  2.31632E+04 -2.75687E+04  1.09828E+04 -2.80325E+04 -2.13252E+03 -2.44496E+04 -1.63685E+04
 -1.02926E+04 -2.23839E+04  7.84959E+03 -2.09168E+04  1.83538E+04 -1.13790E+04  1.76689E+04  4.34251E+03
  6.58338E+03  1.24473E+04 -7.44139E+03  1.12085E+04 -1.42672E+04  2.78640E+03 -1.13494E+04 -8.89932E+03
  4.30514E+02 -1.34390E+04  7.08618E+03 -1.01820E+04  8.58938E+03 -1.08233E+03  1.81941E+03  5.46526E+03
 -5.99232E+03  2.15650E+03 -4.68244E+03 -5.28212E+03  4.84565E+02 -1.17329E+04  8.49034E+03 -1.10259E+04
  1.32960E+04 -6.40191E+03  1.42099E+04  2.47743E+03  1.23063E+04  1.13048E+04  5.89217E+03  1.66651E+04
 -1.82704E+03  1.80392E+04 -1.15696E+04  1.13320E+04 -1.26853E+04  2.70575E+03 -9.03785E+03 -1.92091E+03
 -4.66164E+03 -3.34559E+03 -7.29545E+02  1.04351E+03 -2.35661E+03  2.21099E+03 -4.09705E+03  3.97378E+03
 -8.92325E+03 -7.89898E+02 -9.38987E+03 -7.95202E+03 -3.46647E+03 -1.23651E+04  4.71044E+03 -8.84402E+03
  8.34902E+03 -4.33229E+03  5.83708E+03  2.70844E+03  2.91364E+02  3.55649E+03 -3.82295E+03  3.04560E+02
 -4.25855E+03 -5.76692E+03 -5.79117E+02 -8.35162E+03  4.31243E+03 -8.78244E+03  1.14133E+04 -3.92892E+03
  1.36319E+04  7.69468E+02  1.02326E+04  6.92011E+03  2.13078E+03  1.03757E+04 -6.26018E+03  8.76990E+03
 -8.36949E+03  3.54131E+03 -3.72269E+03 -1.27731E+03  1.46986E+03 -2.27973E+03  5.02215E+03 -1.32158E+03
  4.65346E+03  3.98172E+03  1.00655E+03  6.85403E+03 -5.33552E+03  7.42222E+03 -8.90634E+03  1.67108E+03
 -5.28215E+03 -3.89319E+03 -2.70396E+02 -7.70395E+03  4.33969E+03 -3.44837E+03  4.23464E+03  1.67026E+03
  5.19099E+02  4.18995E+03 -4.29854E+03  5.15009E+03 -6.29883E+03  2.76214E+03 -5.59727E+03 -1.55384E+03
 -3.63562E+03 -6.94111E+03  1.65355E+03 -8.79133E+03  7.12831E+03 -5.44409E+03  7.38474E+03  1.74925E+03
  5.48147E+03  6.76280E+03 -2.70218E+02  7.73642E+03 -5.56133E+03  4.41012E+03 -5.44797E+03 -5.21292E+02
 -6.05264E+03 -5.65730E+03 -1.82425E+03 -5.64621E+03  3.04438E+03 -5.19161E+03  3.22190E+03 -2.79940E+03
  2.76510E+03  5.31460E+02  1.59271E+02  9.91879E+02  8.25838E+02 -2.53554E+02  3.57246E+02 -2.41069E+03
  5.28343E+03 -1.23640E+03  6.22608E+03  5.33007E+02  7.01921E+03  4.27615E+03  5.36261E+03  8.79576E+03
 -1.29196E+03  1.00969E+04 -9.28370E+03  7.73166E+03 -1.19532E+04  1.87714E+03 -9.71037E+03 -3.04914E+03
 -4.88017E+03 -7.91515E+03 -3.45244E+02 -6.20140E+03  1.94259E+03 -2.85281E+03  1.73001E+03 -2.19609E+03
  1.40700E+03 -1.67656E+03  2.00937E+03 -2.24583E+03  3.50161E+03 -1.10627E+03  3.81013E+03  2.07859E+02
  5.19281E+03  1.19189E+03  1.71899E+03  4.06335E+03 -1.59755E+03  3.90189E+03 -5.13263E+03  3.46786E+03
 -5.86327E+03 -1.31234E+03 -2.73823E+03 -4.10070E+03  3.35752E+02 -6.01332E+03  3.91281E+03 -6.23001E+03
  6.18218E+03 -3.44711E+03  7.92682E+03  6.70896E+02  5.72005E+03  5.17211E+03  1.24054E+03  7.27898E+03
 -3.01079E+03  7.07612E+03 -3.86326E+03  2.17995E+03 -2.44805E+03 -8.36116E+02 -3.39975E+02 -5.08067E+02
 -6.40183E+02  2.33447E+02 -1.14346E+03  1.80391E+03 -2.66837E+03  1.95612E+03 -4.81679E+03 -7.08430E+02
 -2.61014E+03 -4.81071E+03  4.81928E+02 -4.93723E+03  3.74381E+03 -5.27109E+03  4.21617E+03 -1.49808E+03
  4.78809E+03  2.50801E+03  1.85951E+03  4.36824E+03 -1.05836E+03  5.18701E+03 -4.25154E+03  2.95377E+03
 -4.59948E+03  6.51145E+02 -3.85996E+03 -2.86430E+03 -2.85292E+02 -4.69336E+03  1.97242E+03 -3.95678E+03
  3.34748E+03 -1.40218E+03  2.04150E+03  5.92793E+02  8.21876E+02  1.55848E+03  1.31158E+03  6.42961E+02
  1.88510E+03  8.14792E+02  8.35862E+02  9.48631E+02  1.36187E+03  2.30178E+03  1.88337E+03  2.06209E+03
 -1.21285E+03  3.65712E+03 -3.23034E+03  4.43634E+03 -4.03898E+03  1.12225E+03 -5.36956E+03 -4.42786E+02
 -2.22753E+03 -4.93418E+03  9.60454E+02 -5.67332E+03  1.95166E+03 -3.02245E+03  4.36898E+03 -1.36154E+03
  3.44845E+03  1.58453E+03  8.10264E+02  2.04133E+03 -7.80965E+02  9.26376E+02 -1.35663E+03  1.20458E+02
 -1.09659E+03 -1.84272E+03  7.01496E+02 -1.85315E+03  2.12513E+03 -1.19039E+03  1.75839E+03  3.51262E+02
  5.35222E+02  2.54215E+02  3.85871E+02 -8.49091E+01 -4.24355E+02  9.61957E+02  1.57009E+03 -4.72640E+02
  3.53964E+02 -5.26423E+02  2.34920E+03  3.42226E+02  1.41747E+02  2.60892E+03 -1.93472E+02  3.41179E+03
 -2.43312E+03  1.13539E+03 -2.24920E+03  8.68046E+02 -2.80026E+03 -3.56338E+02 -6.51935E+02 -1.36398E+03
  5.88584E+02 -1.79476E+03  1.43259E+03 -1.20526E+03  1.35844E+03  9.22099E+02 -5.20221E+02  1.43822E+03
 -1.82922E+03  6.41847E+02 -1.43456E+03 -1.63120E+03 -8.23006E+02 -2.85174E+03 -2.88041E+01 -1.92558E+03
  9.25473E+02 -8.52522E+02  7.13195E+02 -2.86021E+02  1.72266E+03  2.09538E+02 -1.63526E+01  1.36574E+03
 -3.95951E+02 -3.80050E+02 -8.89947E+02 -6.07259E+02  1.10532E+03 -1.41901E+03  2.69998E+03 -1.30401E+03
  1.85788E+03  3.33383E+02  3.79260E+03  1.48658E+03  1.35642E+03  2.45772E+03 -7.68591E+02  2.54268E+03
 -1.52395E+03  6.42883E+01 -1.74181E+03 -3.55913E+02 -1.34742E+03 -1.67663E+03  6.70059E+02 -7.08155E+02
  1.86731E+03 -1.25309E+03  1.12880E+03  1.12126E+03  1.89729E+02  7.98290E+02  4.78334E+01  1.56951E+03
 -4.07126E+02  1.50050E+03 -9.32766E+02  6.86188E+02  2.28298E+02  2.80980E+02 -6.08454E+02  3.39635E+02
 -6.44823E+02  1.56238E+03 -1.96886E+03  4.60460E+02 -2.34241E+03  1.91991E+02 -3.16660E+03 -8.03964E+02
 -1.48696E+03 -3.04539E+03  8.65998E+02 -3.88009E+03  1.70866E+03 -2.95035E+03  4.09628E+03 -1.19600E+03
  2.75449E+03  4.17175E+02  1.71762E+03  2.17856E+03 -8.89335E+02  1.15198E+03 -7.29242E+02  2.01342E+03
 -1.06565E+03  1.05947E+03 -6.16740E+02 -1.18278E+02 -4.86773E+02  2.82300E+02 -4.36269E+02  4.03818E+02
 -7.37677E+02  3.71025E+02 -8.66630E+02 -1.48348E+02  2.02693E+02 -9.18351E+02 -2.66025E+02 -1.23935E+03
  1.32901E+03 -3.75581E+02  6.74335E+02 -1.59159E+01  2.35348E+03  1.44891E+03 -6.91094E+02  2.21767E+03
 -9.90689E+02  2.68351E+03 -2.42096E+03  1.41930E+03 -2.86256E+03 -8.57235E+02 -1.68333E+03 -1.80330E+03
 -1.29111E+03 -1.82058E+03  4.41608E+02 -1.57205E+03  1.27621E+03 -4.76322E+02  3.06993E+02 -2.13132E+02
  1.44152E+03  6.85168E+02  3.11723E+02  1.13130E+03 -5.96500E+02  4.39459E+02 -2.57797E+02 -2.16050E+02
 -1.46572E+01 -3.11592E+02  1.32887E+02 -8.36140E-01  3.02527E+02  9.95695E+02  2.02392E+02  5.59547E+02
 -1.70565E+02  1.27830E+03 -8.65678E+02  2.61177E+02 -1.12130E+03 -3.80870E+02 -5.51362E+02 -1.54594E+03
  6.71675E+02 -1.50131E+03  8.59435E+02  3.59776E+01  1.14559E+03 -3.41400E+02  9.49282E+02  1.47235E+03
  8.24749E+02  1.02693E+03 -5.56769E+02  8.49156E+02 -9.11983E+02  8.41944E+02 -6.15354E+02  3.14268E+02
 -8.47186E+01 -3.05196E+02 -1.00911E+03  2.22055E+02 -8.46419E+02  1.44165E+02 -7.73414E+02 -1.59675E+02
 -7.67144E+02  2.44861E+02  2.51453E+02 -1.41342E+03  7.62470E+02 -1.86132E+03  1.41847E+03 -2.21485E+02
  1.17735E+03  3.42084E+02  1.65823E+02  4.38806E+02  9.89578E+01  7.50405E+02 -4.54435E+02  6.05784E+02
