 $NMID ID='MM_0lb_SNR400_12hz_g60_8.RAW', FMTDAT='(8E13.5)'
 TRAMP=1., VOLUME=1. $END
  3.09154E+05  3.87263E+02  3.37457E+05  2.50692E+05  8.47639E+04  3.38105E+05 -1.31971E+05  2.51209E+05
 -1.90486E+05  8.32873E+04 -1.12264E+05 -3.23486E+04  2.10534E+02 -5.03956E+04  5.40382E+04 -9.93056E+02
  3.64766E+04  5.30672E+04 -1.65473E+04  7.50704E+04 -6.16612E+04  6.44713E+04 -8.49098E+04  3.27894E+04
 -8.15070E+04 -1.16365E+04 -5.77973E+04 -5.29319E+04 -1.55365E+04 -7.02474E+04  2.84873E+04 -4.64112E+04
  4.12413E+04  3.70192E+03  1.67731E+04  4.82626E+04 -3.41648E+04  4.82097E+04 -6.79299E+04 -9.20471E+01
 -5.37414E+04 -5.75789E+04 -7.26087E+03 -7.82308E+04  3.38658E+04 -5.69012E+04  4.90602E+04 -1.84056E+04
  4.46277E+04  1.16509E+04  3.28568E+04  2.67283E+04  1.63171E+04  2.99145E+04 -6.02140E+03  2.71404E+04
 -2.31197E+04  1.22038E+04 -1.80181E+04 -4.97963E+03  6.65142E+03 -8.14064E+03  2.25854E+04  1.29451E+04
  7.06853E+03  3.75245E+04 -3.35701E+04  3.66389E+04 -6.50107E+04  2.94630E+03 -5.81637E+04 -4.40219E+04
 -1.32340E+04 -6.52238E+04  4.15100E+04 -4.63071E+04  6.00866E+04 -2.44734E+03  3.61838E+04  3.40934E+04
 -4.93692E+03  3.82609E+04 -3.11097E+04  1.81371E+04 -3.23891E+04 -3.97239E+03 -1.83649E+04 -1.12066E+04
 -1.00528E+04 -1.40681E+04 -5.94637E+02 -1.94295E+04  7.74101E+03 -2.33121E+04  1.59125E+04 -1.24529E+04
  1.13747E+04  5.71717E+03 -1.00040E+04  1.32809E+04 -2.33166E+04 -5.83280E+03 -8.67022E+03 -3.61465E+04
  2.47529E+04 -4.60738E+04  5.04200E+04 -2.02182E+04  4.79584E+04  2.03415E+04  1.69940E+04  4.63912E+04
 -1.62738E+04  3.55365E+04 -2.71074E+04  2.34837E+03 -1.15077E+04 -2.90705E+04  2.14131E+04 -3.61041E+04
  4.40732E+04 -1.05783E+04  3.89569E+04  2.45966E+04  2.07748E+04  4.95361E+04 -8.40867E+03  5.36605E+04
 -3.43289E+04  3.71740E+04 -4.59089E+04  1.07870E+04 -4.66753E+04 -1.78745E+04 -2.51090E+04 -4.08503E+04
  8.23545E+03 -4.05304E+04  3.33110E+04 -1.60621E+04  3.10488E+04  1.12746E+04  4.12942E+03  2.00231E+04
 -1.37735E+04  9.22689E+03 -1.17291E+04 -7.27969E+03  5.65904E+03 -1.16465E+04  1.84199E+04  5.42968E+03
  1.46463E+04  2.27251E+04 -4.98885E+03  2.62812E+04 -2.28284E+04  1.35937E+04 -3.05182E+04 -3.73865E+03
 -2.40172E+04 -1.81771E+04 -1.10694E+04 -2.39375E+04  4.20196E+03 -2.30126E+04  1.90662E+04 -2.13379E+04
  2.94789E+04 -1.34136E+04  3.64567E+04  4.42997E+03  2.54805E+04  2.30657E+04  4.59505E+03  3.95781E+04
 -1.98419E+04  3.21648E+04 -3.00418E+04  1.14832E+04 -2.17365E+04 -1.09566E+04 -4.74271E+03 -1.28408E+04
  1.36275E+03 -1.50564E+03 -7.90352E+03  7.85256E+03 -1.88827E+04  5.64344E+03 -1.90926E+04 -8.69709E+03
 -1.14997E+04 -2.14816E+04  5.74866E+03 -2.57686E+04  1.76358E+04 -1.87721E+04  2.06967E+04 -1.74487E+03
  1.37979E+04  1.50385E+04 -7.16669E+02  2.23961E+04 -1.57303E+04  1.26282E+04 -2.10953E+04 -5.16121E+03
 -1.63542E+04 -2.00338E+04 -1.88424E+03 -2.59212E+04  1.13434E+04 -2.17872E+04  2.15958E+04 -1.15612E+04
  2.08295E+04  4.50232E+02  1.48630E+04  4.56589E+03  8.15281E+03  1.09330E+03  1.10366E+04 -1.48283E+03
  2.01501E+04  3.44515E+03  2.30996E+04  1.65623E+04  1.54545E+04  3.45203E+04 -2.77110E+03  4.02429E+04
 -2.30932E+04  3.29820E+04 -3.76986E+04  1.75634E+04 -4.05055E+04 -3.20333E+03 -3.26339E+04 -2.32233E+04
 -1.33789E+04 -3.41253E+04  1.15466E+04 -2.96113E+04  2.48330E+04 -1.45450E+04  2.20295E+04  6.43755E+03
  7.32219E+03  1.68289E+04 -1.09770E+04  1.42858E+04 -1.86541E+04  2.52876E+03 -1.40956E+04 -1.19992E+04
 -4.78221E+02 -1.82008E+04  1.01738E+04 -1.32564E+04  1.19062E+04 -6.24004E+02  3.83236E+03  8.10129E+03
 -7.86206E+03  3.22449E+03 -7.79627E+03 -6.73778E+03 -1.50444E+03 -1.60002E+04  1.07414E+04 -1.78482E+04
  2.07753E+04 -9.47128E+03  2.29255E+04  2.62294E+03  1.96006E+04  1.59350E+04  9.41204E+03  2.55185E+04
 -4.21151E+03  2.76531E+04 -1.78147E+04  1.71875E+04 -1.91530E+04  3.58941E+03 -1.39538E+04 -4.71608E+03
 -5.85227E+03 -6.65934E+03 -9.91565E+02  7.97306E+02 -2.70809E+03  3.46355E+03 -6.64012E+03  5.16656E+03
 -1.26640E+04 -1.03965E+03 -1.32022E+04 -1.06272E+04 -5.48747E+03 -1.74780E+04  5.34771E+03 -1.37967E+04
  1.11865E+04 -5.94565E+03  8.02686E+03  3.81529E+03 -3.02425E+02  6.08970E+03 -6.51124E+03  3.31395E+02
 -5.88878E+03 -8.44008E+03 -9.58710E+02 -1.26504E+04  7.87168E+03 -1.38423E+04  1.68203E+04 -7.76183E+03
  2.08794E+04  1.33494E+03  1.51864E+04  1.22030E+04  3.28050E+03  1.59718E+04 -8.63761E+03  1.35361E+04
 -1.13721E+04  3.68967E+03 -6.36449E+03 -3.05248E+03  2.81316E+03 -4.09113E+03  6.90612E+03 -1.03239E+03
  6.05324E+03  6.88879E+03  1.68096E+03  1.12396E+04 -7.97110E+03  1.05052E+04 -1.32034E+04  2.74895E+03
 -9.14239E+03 -6.39637E+03  6.09082E+02 -1.16019E+04  7.55288E+03 -5.80642E+03  7.58631E+03  2.17078E+03
  2.00154E+03  8.33889E+03 -7.45493E+03  9.41762E+03 -1.12799E+04  3.76594E+03 -1.12239E+04 -3.32764E+03
 -6.41668E+03 -1.28665E+04  3.10854E+03 -1.54728E+04  1.25270E+04 -8.87707E+03  1.33323E+04  2.08368E+03
  8.29596E+03  1.14073E+04 -1.36796E+03  1.32114E+04 -9.72233E+03  8.02375E+03 -1.14495E+04 -1.01963E+03
 -9.42859E+03 -9.16730E+03 -1.74690E+03 -1.00120E+04  5.10534E+03 -7.29971E+03  6.93861E+03 -3.31195E+03
  4.08492E+03  1.03738E+03 -1.88764E+02  1.28583E+03 -8.92428E+02 -2.34460E+03  1.91228E+03 -6.58403E+03
  9.17552E+03 -3.32905E+03  1.29444E+04  1.97654E+03  1.24606E+04  8.68470E+03  8.66938E+03  1.61260E+04
 -4.39591E+03  1.95542E+04 -1.63807E+04  1.44345E+04 -2.08135E+04  3.20711E+03 -1.69317E+04 -6.56320E+03
 -8.00015E+03 -1.37652E+04 -9.09301E+02 -1.16178E+04  4.48275E+03 -5.94074E+03  4.01148E+03 -4.44035E+03
  1.94050E+03 -2.50158E+03  3.77735E+03 -3.26950E+03  4.95579E+03 -3.01458E+03  6.94798E+03 -8.27982E+02
  9.05447E+03  1.66287E+03  4.25087E+03  7.74043E+03 -2.16409E+03  9.20734E+03 -8.76805E+03  6.55591E+03
 -1.16892E+04 -1.60272E+03 -8.03124E+03 -8.09741E+03 -9.78893E+02 -1.21266E+04  6.58255E+03 -1.24880E+04
  1.28506E+04 -6.75140E+03  1.53581E+04  2.17782E+03  1.05019E+04  9.93740E+03  2.60047E+03  1.42828E+04
 -5.62103E+03  1.08837E+04 -8.47585E+03  4.77095E+03 -5.16928E+03 -1.20665E+03 -2.58430E+03 -1.81368E+03
 -1.48060E+03 -4.73475E+02 -2.16109E+03  2.54067E+03 -4.81806E+03  1.86065E+03 -8.41903E+03 -1.61817E+03
 -5.35012E+03 -7.66031E+03  9.97060E+01 -1.05939E+04  7.19977E+03 -1.11798E+04  1.00554E+04 -3.71532E+03
  1.08125E+04  5.48723E+03  4.74677E+03  9.89271E+03 -2.43288E+03  1.12531E+04 -8.02420E+03  7.33445E+03
 -1.02343E+04 -3.27623E+01 -8.06034E+03 -6.63857E+03 -8.64577E+02 -9.34378E+03  5.23996E+03 -6.61629E+03
  7.17105E+03 -2.50675E+03  5.49373E+03  2.08655E+03  1.88208E+03  3.33629E+03  1.23945E+03  1.47448E+03
  2.29642E+03  5.84561E+02  3.48889E+03  1.71128E+03  3.15660E+03  3.94138E+03  2.07930E+03  5.86859E+03
 -2.75115E+03  8.38550E+03 -7.85871E+03  8.87384E+03 -1.06335E+04  2.85450E+03 -1.15964E+04 -4.59612E+03
 -5.99449E+03 -1.12314E+04  1.52542E+03 -1.25665E+04  6.75762E+03 -7.57899E+03  9.38582E+03 -2.61523E+03
  7.37689E+03  4.10491E+03  1.75989E+03  6.46163E+03 -2.83105E+03  3.69923E+03 -4.38446E+03 -6.31527E+02
 -2.40942E+03 -4.82072E+03  2.86864E+03 -4.52119E+03  5.05630E+03 -2.70057E+03  4.37908E+03  5.78540E+02
  2.71817E+03  2.60838E+03  7.93419E+02  5.09539E+02 -9.22175E+02  1.51388E+03  1.74310E+03 -8.13672E+02
  1.78160E+03 -2.36474E+02  4.27813E+03  2.07537E+03  1.83506E+03  6.16028E+03 -1.00080E+03  7.55750E+03
 -4.70747E+03  4.35667E+03 -7.22090E+03  1.19200E+03 -5.85654E+03 -2.59106E+03 -2.34155E+03 -3.82330E+03
  8.37206E+02 -3.92884E+03  3.01400E+03 -2.25804E+03  1.81681E+03  2.60105E+03 -1.57725E+03  3.42751E+03
 -4.28229E+03  2.09973E+03 -5.45870E+03 -2.81528E+03 -2.31086E+03 -6.09281E+03  1.18820E+03 -5.42454E+03
  3.01223E+03 -3.52648E+03  4.34962E+03 -1.86041E+02  3.62481E+03  1.12370E+03  6.95666E+02  2.68246E+03
 -2.43301E+03  1.09391E+03 -3.00489E+03 -2.29205E+03  1.00040E+03 -3.79998E+03  4.90707E+03 -4.10136E+03
  6.30739E+03  7.87186E+02  7.08945E+03  4.74832E+03  1.71957E+03  6.59083E+03 -1.70618E+03  6.84745E+03
 -5.54428E+03  3.00538E+03 -6.10046E+03 -1.80247E+03 -3.84053E+03 -4.41921E+03  1.71493E+03 -4.18704E+03
  4.01581E+03 -1.53510E+03  3.41561E+03  1.36499E+03  9.38011E+02  3.47233E+03 -1.18893E+03  2.89756E+03
 -1.37703E+03  1.92694E+03 -1.26130E+03  2.94200E+02 -1.12651E+03  1.53228E+02 -1.23619E+03  1.45390E+03
 -9.25479E+02  2.65730E+03 -4.94690E+03  1.90787E+03 -6.37911E+03  3.05958E+02 -7.02945E+03 -4.22366E+03
 -3.42383E+03 -8.74587E+03  1.56817E+03 -9.63374E+03  5.50438E+03 -7.58467E+03  9.48115E+03 -3.79622E+03
  8.71004E+03  1.90707E+03  5.20666E+03  5.69416E+03  1.20495E+02  6.55869E+03 -2.98545E+03  4.76860E+03
 -3.85617E+03  2.23281E+03 -2.49955E+03 -1.11705E+03 -1.21358E+03 -1.85954E+02 -8.98120E+02  5.19307E+02
 -1.68172E+03 -7.02983E+02 -1.65212E+03  5.32388E+02 -6.94017E+02 -1.90130E+03 -5.05245E+02 -2.17910E+03
  2.76050E+03 -2.53274E+03  3.00156E+03 -5.42841E+02  4.32047E+03  2.95378E+03  6.59512E+02  6.97328E+03
 -3.44743E+03  7.96499E+03 -6.76916E+03  4.83751E+03 -7.44614E+03 -1.14065E+03 -6.21575E+03 -5.05347E+03
 -2.78071E+03 -6.06024E+03  1.84179E+03 -5.77394E+03  4.82707E+03 -2.67731E+03  3.80367E+03 -5.21346E+02
  3.15691E+03  1.27651E+03 -2.12214E+02  2.07489E+03 -2.09385E+03 -1.35568E+02  3.72346E+02 -1.77232E+03
  1.59083E+03 -2.54804E+02  2.22581E+03  1.16028E+03  1.75304E+03  2.56013E+03  9.96346E+01  3.25492E+03
 -2.45488E+03  2.78420E+03 -3.83422E+03  2.15117E+02 -3.04280E+03 -2.44327E+03 -3.51950E+02 -4.92683E+03
  2.74673E+03 -3.79729E+03  5.27206E+03 -1.11665E+03  4.46244E+03 -1.42066E+02  2.49582E+03  3.56958E+03
  5.03570E+02  4.42222E+03 -7.61015E+02  3.10390E+03 -2.62934E+03  1.95769E+03 -1.45531E+03  2.71612E+02
 -4.58354E+02 -6.37550E+02 -9.88198E+02  1.03959E+03 -1.79795E+03  1.17844E+03 -2.85918E+03 -1.07374E+03
 -2.85829E+03 -1.40330E+03 -1.59989E+03 -3.82834E+03  2.18139E+03 -4.65248E+03  3.31807E+03 -2.31147E+03
  4.19958E+03  4.51991E+01  1.35928E+03  2.94107E+03 -7.59972E+01  4.64529E+03 -3.53973E+03  3.05323E+03
