 $NMID ID='MM_0lb_SNR400_17hz_g40_76.RAW', FMTDAT='(8E13.5)'
 TRAMP=1., VOLUME=1. $END
  3.09854E+05 -2.76351E+02  3.37261E+05  2.51092E+05  8.42364E+04  3.37411E+05 -1.31982E+05  2.50011E+05
 -1.89874E+05  8.24647E+04 -1.11168E+05 -3.25017E+04  1.65943E+03 -5.02412E+04  5.32429E+04 -1.32285E+02
  3.53841E+04  5.28202E+04 -1.65785E+04  7.44328E+04 -6.00222E+04  6.30657E+04 -8.31282E+04  3.15042E+04
 -7.96882E+04 -1.08083E+04 -5.61316E+04 -5.01370E+04 -1.50956E+04 -6.82123E+04  2.65082E+04 -4.44347E+04
  3.91617E+04  3.98407E+03  1.54831E+04  4.69466E+04 -3.40666E+04  4.64198E+04 -6.52891E+04 -6.05983E+02
 -5.17957E+04 -5.59926E+04 -5.44785E+03 -7.52049E+04  3.34727E+04 -5.37475E+04  4.60259E+04 -1.63639E+04
  4.18433E+04  1.11717E+04  3.11924E+04  2.44660E+04  1.60699E+04  2.81474E+04 -4.75439E+03  2.68011E+04
 -2.16632E+04  1.26085E+04 -1.93533E+04 -4.08636E+03  4.30639E+03 -7.90255E+03  2.10971E+04  1.11557E+04
  7.49024E+03  3.38646E+04 -3.09087E+04  3.41432E+04 -6.11386E+04  2.51543E+03 -5.56102E+04 -4.13462E+04
 -1.26626E+04 -6.10099E+04  3.82355E+04 -4.40869E+04  5.54205E+04 -1.86956E+03  3.17930E+04  3.08327E+04
 -6.25325E+03  3.38473E+04 -2.88509E+04  1.35712E+04 -2.80995E+04 -5.04232E+03 -1.41583E+04 -1.01985E+04
 -7.72458E+03 -1.13541E+04 -1.19194E+03 -1.65431E+04  6.15183E+03 -2.24260E+04  1.54061E+04 -1.31837E+04
  1.29463E+04  4.76172E+03 -6.45456E+03  1.28903E+04 -1.97073E+04 -2.54896E+03 -8.41458E+03 -3.09845E+04
  2.05889E+04 -4.07239E+04  4.50293E+04 -1.89043E+04  4.19616E+04  1.82565E+04  1.41737E+04  4.20960E+04
 -1.52544E+04  3.14095E+04 -2.36300E+04  8.26294E+02 -8.52523E+03 -2.59749E+04  2.11621E+04 -3.15276E+04
  3.88093E+04 -7.82532E+03  3.20844E+04  2.27679E+04  1.59200E+04  4.26545E+04 -7.82560E+03  4.56667E+04
 -2.82162E+04  3.04747E+04 -3.72381E+04  8.55061E+03 -3.86196E+04 -1.54350E+04 -2.17993E+04 -3.45833E+04
  7.05647E+03 -3.45428E+04  2.96019E+04 -1.25757E+04  2.70290E+04  1.07193E+04  2.77408E+03  1.82771E+04
 -1.29968E+04  7.00479E+03 -9.40614E+03 -7.68098E+03  5.39171E+03 -1.05801E+04  1.73767E+04  6.12118E+03
  1.28788E+04  2.15072E+04 -7.07031E+03  2.32305E+04 -2.13635E+04  9.46908E+03 -2.50682E+04 -6.13794E+03
 -1.73278E+04 -1.64024E+04 -5.98569E+03 -1.76830E+04  4.14284E+03 -1.56407E+04  1.24883E+04 -1.50081E+04
  2.16269E+04 -1.16190E+04  2.87261E+04  1.36537E+03  2.19641E+04  1.68746E+04  4.22390E+03  3.25666E+04
 -1.61854E+04  2.80903E+04 -2.66118E+04  1.01503E+04 -1.97457E+04 -1.05438E+04 -3.60769E+03 -1.36810E+04
  2.57449E+03 -4.14419E+03 -3.17044E+03  5.12026E+03 -1.34481E+04  4.79451E+03 -1.40734E+04 -5.29136E+03
 -8.85742E+03 -1.58122E+04  4.37659E+03 -1.97843E+04  1.33587E+04 -1.41424E+04  1.56623E+04 -1.70509E+03
  8.75737E+03  1.13315E+04 -8.09373E+02  1.64548E+04 -1.14521E+04  8.97345E+03 -1.63913E+04 -3.65174E+03
 -1.23067E+04 -1.51414E+04 -1.04586E+03 -1.98157E+04  8.71089E+03 -1.56904E+04  1.64278E+04 -7.15892E+03
  1.46357E+04  1.77159E+02  1.11045E+04  3.77543E+03  5.32670E+03  4.50831E+02  7.52213E+03 -9.48451E+02
  1.46992E+04  3.54809E+03  1.53925E+04  1.27704E+04  9.44297E+03  2.61419E+04 -3.21464E+03  2.78887E+04
 -1.61437E+04  2.04110E+04 -2.55391E+04  1.05010E+04 -2.65965E+04 -1.61810E+03 -2.28765E+04 -1.42159E+04
 -1.03499E+04 -2.11537E+04  7.28375E+03 -1.97686E+04  1.73693E+04 -1.12276E+04  1.59047E+04  4.05340E+03
  6.61182E+03  1.20490E+04 -7.64375E+03  1.04867E+04 -1.39052E+04  2.98512E+03 -1.03079E+04 -7.94270E+03
  1.64279E+01 -1.29180E+04  6.52655E+03 -1.00858E+04  8.35413E+03 -1.29355E+03  1.35924E+03  4.75995E+03
 -6.22405E+03  1.52139E+03 -3.77525E+03 -5.09113E+03 -1.40750E+01 -1.00950E+04  7.87409E+03 -1.05314E+04
  1.32552E+04 -5.10023E+03  1.33145E+04  2.54896E+03  1.08357E+04  1.03625E+04  5.29935E+03  1.48143E+04
 -2.12302E+03  1.67281E+04 -1.03519E+04  1.03584E+04 -1.19574E+04  3.12071E+03 -8.98540E+03 -1.91363E+03
 -4.07554E+03 -3.09417E+03 -5.47550E+02  1.59256E+03 -1.90408E+03  1.51693E+03 -3.16751E+03  3.34327E+03
 -8.05226E+03 -4.98358E+02 -9.30250E+03 -7.17728E+03 -4.13335E+03 -1.21494E+04  4.03080E+03 -8.66702E+03
  7.49749E+03 -4.13679E+03  5.43383E+03  2.25579E+03  1.01474E+03  3.51999E+03 -4.01542E+03 -2.26674E+01
 -4.30623E+03 -5.55172E+03 -5.96798E+02 -8.13001E+03  4.40237E+03 -8.31563E+03  1.12318E+04 -3.81521E+03
  1.22930E+04  1.04413E+03  9.21509E+03  6.79236E+03  1.93538E+03  8.96836E+03 -6.33485E+03  8.83694E+03
 -7.52084E+03  3.27755E+03 -3.17149E+03 -1.63437E+03  1.41651E+03 -1.83683E+03  5.23392E+03 -1.21531E+03
  3.35297E+03  2.76032E+03  1.35630E+03  7.06994E+03 -4.34214E+03  6.14275E+03 -8.38151E+03  1.27937E+03
 -5.55784E+03 -3.87942E+03  5.19554E+02 -6.53727E+03  4.29745E+03 -3.55310E+03  4.33830E+03  7.09923E+02
  7.86649E+02  3.71017E+03 -4.25093E+03  4.75726E+03 -5.37107E+03  2.50102E+03 -5.41103E+03 -1.36222E+03
 -3.16356E+03 -6.49533E+03  1.18194E+03 -7.34215E+03  6.80062E+03 -4.55149E+03  6.96409E+03  9.36014E+02
  5.22918E+03  5.73119E+03 -4.54911E+02  7.57890E+03 -5.36281E+03  4.93010E+03 -5.68306E+03 -1.26448E+03
 -5.80074E+03 -5.37265E+03 -1.18449E+03 -5.48142E+03  3.38428E+03 -5.01790E+03  2.83951E+03 -2.12884E+03
  3.17355E+03  4.97781E+02 -8.34910E+01  1.21796E+03  1.55302E+02 -1.47752E+02 -8.51606E+01 -2.59678E+03
  4.59594E+03 -1.07267E+03  6.20736E+03  8.07097E+02  6.86676E+03  4.00332E+03  5.19292E+03  7.83432E+03
 -1.21103E+03  9.89071E+03 -8.27512E+03  7.35053E+03 -1.05507E+04  1.33921E+03 -8.45523E+03 -3.34409E+03
 -4.21354E+03 -6.98484E+03 -4.69138E+02 -6.28143E+03  2.50474E+03 -3.35006E+03  2.08331E+03 -2.41106E+03
  1.83207E+03 -2.04654E+03  2.53502E+03 -2.51138E+03  3.80690E+03 -1.53881E+03  4.13349E+03  1.74167E+02
  4.53240E+03  1.09727E+03  1.17941E+03  3.74293E+03 -1.51431E+03  2.94876E+03 -4.92261E+03  3.56030E+03
 -5.73279E+03 -1.27311E+03 -2.36839E+03 -3.94731E+03 -1.71798E+02 -5.49228E+03  3.66463E+03 -6.00453E+03
  6.29395E+03 -3.74428E+03  7.60217E+03  1.03592E+03  5.35538E+03  5.32516E+03  9.57322E+02  6.90241E+03
 -2.22250E+03  6.80526E+03 -4.18786E+03  2.29628E+03 -2.28699E+03 -1.13526E+03 -7.23075E+02 -3.07801E+02
 -5.18695E+02  5.30111E+02 -8.60487E+02  1.54479E+03 -2.71020E+03  9.74509E+02 -4.24000E+03 -1.27798E+03
 -1.93504E+03 -4.03026E+03  9.84422E+02 -5.67989E+03  3.05424E+03 -4.62008E+03  4.54620E+03 -8.58243E+02
  4.68667E+03  2.63023E+03  1.91859E+03  4.09311E+03 -5.38989E+02  5.07387E+03 -3.12909E+03  2.66215E+03
 -4.86739E+03  3.95884E+02 -3.36291E+03 -2.62582E+03 -5.75748E+00 -3.26913E+03  2.15988E+03 -2.99672E+03
  3.28843E+03 -1.45348E+03  2.35390E+03  2.59599E+02  1.12806E+03  1.90120E+03  1.04613E+03  7.31743E+02
  1.77518E+03  1.27404E+03  1.97803E+03  8.20721E+02  1.47192E+03  1.93652E+03  1.47911E+03  2.10091E+03
 -1.07019E+03  3.50727E+03 -3.64895E+03  4.69326E+03 -4.19853E+03  1.11687E+03 -5.14040E+03 -2.96346E+02
 -2.42121E+03 -3.88976E+03  4.28529E+02 -5.74653E+03  2.61891E+03 -2.97782E+03  3.84790E+03 -9.42751E+02
  2.80801E+03  2.05329E+03  8.83721E+02  2.65351E+03 -6.94810E+02  1.09502E+03 -1.50383E+03 -4.78094E+02
 -3.94414E+02 -1.71809E+03  1.48149E+03 -1.10648E+03  1.31225E+03 -1.21360E+03  1.17068E+03  7.33184E+02
  1.38384E+03  3.40945E+02  8.37189E+02 -1.38721E+02 -2.93078E+02  8.67629E+02  1.90369E+03  1.38510E+01
 -5.88340E+02 -6.21238E+01  1.70398E+03  8.88971E+02  1.12797E+02  2.70044E+03 -4.40542E+02  3.57603E+03
 -1.75507E+03  1.92948E+03 -2.49647E+03  5.50683E+02 -2.77003E+03 -7.63173E+02 -2.52310E+02 -1.59205E+03
  1.89591E+01 -1.36601E+03  1.11354E+03 -1.02621E+03  5.30852E+02  1.44924E+03 -5.02274E+02  1.74260E+03
 -1.62968E+03  1.23528E+03 -1.30320E+03 -1.60875E+03 -6.19837E+02 -2.70451E+03  2.47300E+02 -1.66473E+03
  9.23419E+02 -5.68634E+02  1.23737E+03 -2.10649E+02  1.12879E+03 -4.22949E+02  4.45743E+02  5.40982E+02
 -7.46808E+02  2.93322E+02 -9.79447E+02 -3.66448E+02  5.08688E+02 -1.75877E+03  1.55194E+03 -1.25774E+03
  2.18491E+03  6.72102E+00  3.35401E+03  1.37499E+03  1.12591E+03  2.47649E+03 -3.47668E+02  2.18680E+03
 -1.80172E+03  1.06015E+03 -2.07652E+03 -2.74978E+02 -1.19973E+03 -1.20069E+03  3.03856E+02 -1.31914E+03
  1.77719E+03 -2.19143E+02  9.06729E+02  1.31667E+03  8.46041E+01  1.88358E+03 -9.48529E+01  1.60330E+03
 -2.20713E+02  1.23206E+03 -1.09154E+03  2.60590E+02 -1.25317E+02  7.75685E+02 -8.55652E+02  4.39987E+02
 -1.41996E+03  1.08936E+03 -2.85648E+03  2.45404E+02 -2.70747E+03  9.40387E+01 -2.80644E+03 -1.42444E+03
 -1.21254E+03 -3.39862E+03  7.88496E+02 -3.73929E+03  1.90280E+03 -3.11987E+03  3.35443E+03 -1.49862E+03
  3.31065E+03 -1.86963E+01  2.03362E+03  1.94415E+03  6.48381E+01  1.71511E+03 -1.46877E+03  1.52837E+03
 -9.44327E+02  6.30046E+02 -3.86964E+02 -6.64969E+02 -1.46112E+03  4.88031E+02 -8.14729E+02  2.12418E+02
 -6.74853E+02  4.22538E+02 -5.47579E+02  6.08414E+02  1.28455E+02 -7.77304E+02 -5.59556E+02 -1.61172E+03
  1.89787E+03 -8.85904E+02  4.24615E+02  5.97518E+02  1.35165E+03  1.37389E+03 -5.29690E+02  2.69577E+03
 -1.70758E+03  3.11739E+03 -2.41059E+03  1.57320E+03 -2.22185E+03 -4.89876E+02 -1.78194E+03 -1.75240E+03
 -1.03481E+03 -2.05468E+03  9.43976E+02 -1.37579E+03  1.26457E+03 -7.96284E+02  9.80424E+02  1.07101E+02
  8.59834E+02  6.35255E+02  3.30174E+02  7.76050E+02 -2.20424E+02 -1.40513E+02  1.10910E+02 -3.48081E+02
  7.32777E+02  5.11963E+02 -1.60239E+02  5.47714E+02  1.85137E+02 -2.48345E+02  1.33541E+02  6.98634E+02
 -8.36988E+02  6.42717E+02 -1.11298E+03  4.16874E+02 -6.50245E+02 -9.74019E+02 -2.42351E+02 -9.85591E+02
  9.83133E+02 -6.17613E+02  1.26474E+03 -1.59893E+02  1.62761E+03 -5.85041E+02 -1.02774E+02  6.13988E+02
  4.82247E+02  7.72143E+02 -2.87254E+02  8.63773E+02 -3.79854E+02  1.33040E+03 -3.65953E+02  3.93882E+02
 -6.77187E+02 -9.80096E+01 -6.80123E+02  5.02576E+02 -9.85105E+02  2.35306E+02 -9.36366E+02 -2.19330E+02
 -1.43811E+03 -1.00757E+02  8.83426E+01 -1.32837E+03  9.28743E+02 -1.43775E+03  8.28657E+02 -8.14001E+02
  5.41057E+02  4.90621E+02  3.36150E+02  9.30748E+02 -1.30772E+02  1.27651E+03 -1.19499E+03  1.00396E+03
