 $NMID ID='MM_0lb_SNR400_17hz_g60_53.RAW', FMTDAT='(8E13.5)'
 TRAMP=1., VOLUME=1. $END
  3.09671E+05  4.93379E+02  3.36904E+05  2.50336E+05  8.49728E+04  3.37904E+05 -1.32961E+05  2.50883E+05
 -1.90240E+05  8.31745E+04 -1.11676E+05 -3.25899E+04  1.03506E+03 -5.06901E+04  5.32428E+04 -4.95696E+02
  3.51145E+04  5.29085E+04 -1.71928E+04  7.57825E+04 -6.08400E+04  6.32837E+04 -8.39446E+04  3.21899E+04
 -8.10257E+04 -1.12720E+04 -5.74206E+04 -5.08613E+04 -1.47219E+04 -6.89057E+04  2.75559E+04 -4.57231E+04
  3.93977E+04  4.62495E+03  1.62588E+04  4.79374E+04 -3.43792E+04  4.69572E+04 -6.67401E+04 -2.70690E+02
 -5.32618E+04 -5.70233E+04 -7.00212E+03 -7.67297E+04  3.37977E+04 -5.47840E+04  4.74591E+04 -1.76402E+04
  4.32312E+04  1.13542E+04  3.16775E+04  2.47190E+04  1.51740E+04  2.91912E+04 -5.41532E+03  2.68308E+04
 -2.17972E+04  1.28536E+04 -1.84212E+04 -4.93174E+03  5.41267E+03 -7.75811E+03  2.22808E+04  1.24290E+04
  7.25655E+03  3.52132E+04 -3.21860E+04  3.48176E+04 -6.25131E+04  1.68769E+03 -5.67410E+04 -4.26573E+04
 -1.32247E+04 -6.29753E+04  3.96449E+04 -4.47326E+04  5.78402E+04 -2.05013E+03  3.35856E+04  3.20119E+04
 -6.43524E+03  3.59830E+04 -2.92121E+04  1.54714E+04 -2.99813E+04 -4.94873E+03 -1.64801E+04 -1.09852E+04
 -8.19103E+03 -1.26484E+04 -6.62368E+02 -1.82608E+04  7.62924E+03 -2.33515E+04  1.53848E+04 -1.33472E+04
  1.14648E+04  5.11352E+03 -7.94573E+03  1.30438E+04 -2.10144E+04 -4.47756E+03 -7.77222E+03 -3.29658E+04
  2.23973E+04 -4.29929E+04  4.75123E+04 -1.93847E+04  4.45997E+04  1.91337E+04  1.54700E+04  4.35361E+04
 -1.55259E+04  3.25725E+04 -2.46519E+04  1.48226E+03 -9.61900E+03 -2.73946E+04  2.09365E+04 -3.28982E+04
  4.04672E+04 -8.77851E+03  3.51154E+04  2.35272E+04  1.71819E+04  4.57162E+04 -7.52944E+03  4.89616E+04
 -3.09886E+04  3.33659E+04 -4.14143E+04  9.24721E+03 -4.15579E+04 -1.61616E+04 -2.28149E+04 -3.65439E+04
  7.52385E+03 -3.68544E+04  3.13259E+04 -1.38388E+04  2.89154E+04  1.02256E+04  3.66771E+03  1.92485E+04
 -1.35553E+04  8.32883E+03 -1.01254E+04 -7.71716E+03  5.46411E+03 -1.04119E+04  1.76834E+04  6.36075E+03
  1.36422E+04  2.24312E+04 -5.41817E+03  2.44404E+04 -2.21338E+04  1.08600E+04 -2.70773E+04 -5.26579E+03
 -1.91439E+04 -1.71899E+04 -8.47344E+03 -1.90672E+04  3.44743E+03 -1.86116E+04  1.40033E+04 -1.73471E+04
  2.49814E+04 -1.27837E+04  3.13234E+04  2.44508E+03  2.36361E+04  1.89124E+04  3.33533E+03  3.50239E+04
 -1.74660E+04  2.97691E+04 -2.72911E+04  1.01049E+04 -1.98745E+04 -1.05148E+04 -3.79820E+03 -1.40014E+04
  2.06820E+03 -3.31338E+03 -4.66081E+03  6.60317E+03 -1.57575E+04  5.22886E+03 -1.57230E+04 -6.69608E+03
 -9.86302E+03 -1.80217E+04  4.57630E+03 -2.16324E+04  1.41637E+04 -1.53835E+04  1.65217E+04 -1.58140E+03
  1.03360E+04  1.27127E+04 -8.45888E+02  1.80868E+04 -1.22112E+04  1.02955E+04 -1.76259E+04 -4.40962E+03
 -1.37542E+04 -1.64078E+04 -1.72932E+03 -2.24815E+04  1.03676E+04 -1.77089E+04  1.86810E+04 -8.58423E+03
  1.71702E+04  6.03984E+02  1.17019E+04  4.64940E+03  5.55549E+03  6.64258E+02  8.88063E+03 -1.29753E+03
  1.61339E+04  2.77561E+03  1.75800E+04  1.45090E+04  1.15439E+04  2.87348E+04 -2.65343E+03  3.14079E+04
 -1.87057E+04  2.49270E+04 -2.95560E+04  1.23488E+04 -3.09007E+04 -1.60584E+03 -2.54289E+04 -1.76234E+04
 -1.14039E+04 -2.50539E+04  7.91564E+03 -2.22111E+04  2.00644E+04 -1.17402E+04  1.74714E+04  5.54750E+03
  7.24233E+03  1.34733E+04 -7.75741E+03  1.17942E+04 -1.49721E+04  2.44026E+03 -1.11603E+04 -8.80699E+03
 -5.04976E+02 -1.40963E+04  6.89321E+03 -1.02890E+04  9.12062E+03 -1.36095E+03  1.83344E+03  5.96248E+03
 -6.53929E+03  1.67102E+03 -5.00210E+03 -5.30039E+03  7.35734E+01 -1.24773E+04  8.95687E+03 -1.23896E+04
  1.51380E+04 -6.35235E+03  1.53510E+04  2.84946E+03  1.31962E+04  1.09350E+04  5.93655E+03  1.80351E+04
 -2.65856E+03  1.95925E+04 -1.27076E+04  1.20120E+04 -1.39433E+04  3.25773E+03 -9.70891E+03 -2.75790E+03
 -4.87217E+03 -4.03965E+03 -8.21909E+02  1.84118E+03 -2.06636E+03  2.34572E+03 -4.67768E+03  3.89688E+03
 -1.00453E+04 -1.03736E+03 -1.03674E+04 -8.30052E+03 -4.40595E+03 -1.34891E+04  3.45358E+03 -1.03356E+04
  8.17216E+03 -4.81306E+03  5.89643E+03  2.54337E+03 -9.31943E+01  3.69763E+03 -4.30997E+03 -8.45928E+02
 -4.27570E+03 -6.42751E+03 -8.00674E+02 -9.46192E+03  5.18879E+03 -9.65423E+03  1.17467E+04 -4.97655E+03
  1.43317E+04  1.30169E+03  1.09386E+04  7.78213E+03  2.24595E+03  1.10759E+04 -6.30987E+03  1.02189E+04
 -8.43079E+03  2.45631E+03 -3.73718E+03 -1.95712E+03  1.07998E+03 -2.46769E+03  5.34777E+03 -8.84272E+02
  4.77283E+03  3.48438E+03  1.31211E+03  7.71817E+03 -5.50782E+03  7.74955E+03 -9.36031E+03  2.42018E+03
 -6.04963E+03 -4.87135E+03  3.41257E+02 -8.16728E+03  5.15611E+03 -3.71381E+03  4.53819E+03  1.45588E+03
  5.25920E+02  4.52818E+03 -5.15989E+03  6.28453E+03 -6.06661E+03  3.21220E+03 -6.56718E+03 -2.22295E+03
 -4.09080E+03 -8.13644E+03  1.86851E+03 -9.47084E+03  7.94364E+03 -5.87606E+03  8.13639E+03  1.44244E+03
  5.59612E+03  6.75311E+03 -3.04430E+01  8.30675E+03 -5.92326E+03  5.00692E+03 -6.51807E+03 -9.91656E+02
 -6.91245E+03 -6.08757E+03 -1.06653E+03 -6.52445E+03  3.13821E+03 -6.03698E+03  3.40976E+03 -2.96297E+03
  3.50255E+03  5.18125E+02 -6.11204E+02  1.72707E+03  3.14015E+02 -9.03256E+02  5.57173E+02 -3.10583E+03
  5.36777E+03 -1.55389E+03  7.48115E+03  4.61416E+02  7.00675E+03  4.06610E+03  6.07009E+03  9.39340E+03
 -1.48520E+03  1.14503E+04 -9.93221E+03  8.35171E+03 -1.30450E+04  1.29193E+03 -9.96221E+03 -4.35717E+03
 -5.18420E+03 -8.24800E+03 -6.15113E+02 -6.62249E+03  2.43086E+03 -3.24488E+03  2.40336E+03 -2.36827E+03
  1.69766E+03 -1.49674E+03  2.45097E+03 -2.68667E+03  3.68220E+03 -1.79640E+03  4.63185E+03  4.84059E+02
  5.66226E+03  1.16379E+03  2.01457E+03  4.09397E+03 -1.59521E+03  4.07976E+03 -5.44006E+03  3.74758E+03
 -6.23237E+03 -9.94476E+02 -3.36022E+03 -4.07663E+03  2.36731E+02 -6.65389E+03  3.99063E+03 -6.76017E+03
  7.19150E+03 -4.00560E+03  8.32078E+03  5.82196E+02  6.64341E+03  5.68274E+03  1.21291E+03  7.50083E+03
 -2.93374E+03  6.88277E+03 -4.63721E+03  2.81207E+03 -2.62972E+03 -8.41982E+02 -7.43817E+02 -7.94338E+02
 -6.49383E+02  2.98531E+02 -1.60930E+03  1.82957E+03 -3.06372E+03  9.20836E+02 -4.44663E+03 -4.08248E+02
 -2.21198E+03 -4.45984E+03  1.37921E+03 -6.04215E+03  3.79800E+03 -6.18161E+03  5.49750E+03 -9.44722E+02
  5.85607E+03  2.69809E+03  2.68956E+03  4.39380E+03 -8.89498E+02  5.84668E+03 -3.19106E+03  3.55663E+03
 -5.23597E+03  9.48053E+02 -3.86301E+03 -3.34493E+03 -2.23139E+02 -4.60141E+03  2.75897E+03 -3.89212E+03
  3.78834E+03 -1.62040E+03  2.68928E+03  1.14629E+03  7.49486E+01  1.28302E+03  8.90022E+02  5.07827E+02
  1.95467E+03  2.96714E+02  1.01670E+03  1.06559E+03  1.55728E+03  2.76083E+03  1.20648E+03  2.41834E+03
 -1.48240E+03  3.47413E+03 -2.98159E+03  4.82378E+03 -4.97114E+03  1.58744E+03 -4.97900E+03 -1.06153E+03
 -2.59907E+03 -5.34305E+03  1.36512E+03 -5.66400E+03  2.39452E+03 -4.22033E+03  3.65837E+03 -1.46983E+03
  3.57729E+03  2.12586E+03  8.70929E+02  3.26440E+03 -1.61628E+03  1.87987E+03 -1.80549E+03  3.26260E+02
 -8.46461E+02 -1.94463E+03  1.20615E+03 -1.88319E+03  1.96787E+03 -1.08208E+03  1.97937E+03  4.24315E+02
  1.19273E+03  1.78253E+02  9.04934E+02  1.02263E+02 -6.51341E+01  7.22004E+02  2.16564E+03 -4.09542E+02
  6.14319E+02 -2.73139E+02  1.70499E+03  7.99353E+02  1.11430E+03  2.50437E+03 -8.44774E+02  2.66002E+03
 -2.38741E+03  1.63443E+03 -3.16915E+03  2.08194E+02 -2.77524E+03 -1.07079E+03 -4.02668E+02 -1.06575E+03
  1.30831E+03 -1.91836E+03  1.27011E+03 -1.10221E+03  1.49517E+03  1.32447E+03 -1.43788E+03  1.29590E+03
 -1.84385E+03  1.07218E+03 -1.54251E+03 -2.27832E+03 -1.54246E+03 -2.70752E+03  1.03488E+03 -1.68164E+03
  1.17268E+03 -9.57900E+02  1.62967E+03  3.38874E+01  1.73080E+03  9.71067E+01  2.58936E+02  1.55212E+03
 -6.83360E+02  1.34336E+02 -1.42372E+03 -7.05615E+01  9.96480E+02 -1.19742E+03  2.68832E+03 -6.10899E+02
  2.45434E+03  5.59016E+02  3.32069E+03  7.34520E+02  1.31901E+03  2.17208E+03 -6.90534E+02  2.59284E+03
 -1.78436E+03  9.58060E+02 -2.11585E+03 -2.11236E+01 -1.02770E+03 -1.83249E+03  6.46573E+02 -5.95099E+02
  1.97448E+03 -1.31733E+03  7.01582E+02  6.73185E+02  1.10274E+02  1.79019E+03  1.84922E+02  1.55693E+03
 -4.47454E+02  1.12500E+03 -6.94799E+02  1.73962E+02  6.05414E+01  7.29755E+02 -6.27143E+02  9.10004E+02
 -1.06982E+03  8.74923E+02 -2.42947E+03 -3.18986E+02 -2.62357E+03  1.46798E+02 -2.90178E+03 -1.56752E+03
 -1.14021E+03 -2.59156E+03  7.03963E+02 -4.30386E+03  1.68433E+03 -3.43201E+03  3.19885E+03 -1.08785E+03
  3.46726E+03  6.21374E+02  1.71412E+03  2.33093E+03 -6.88906E+02  2.10718E+03 -3.56878E+02  1.22242E+03
 -9.82352E+02  9.24946E+02 -1.42292E+03 -9.41465E+02 -7.95792E+02  8.85942E+02 -7.51018E+02 -2.00116E+02
 -8.54337E+02 -3.34174E+02 -1.04561E+03 -2.38446E+02  2.88001E+02 -5.21913E+02 -5.86671E+02 -1.01451E+03
  1.47797E+03 -1.01630E+03  5.84744E+02  3.59302E+02  1.79710E+03  1.19606E+03 -3.52277E+02  2.27955E+03
 -1.56082E+02  2.82089E+03 -2.68750E+03  1.72674E+03 -2.34738E+03 -5.24177E+02 -1.32167E+03 -1.63257E+03
 -1.43206E+03 -1.89961E+03  4.97708E+02 -1.26466E+03  9.66135E+02 -8.56065E+02  4.70935E+02  4.21925E+02
  1.00640E+03  3.64976E+02 -3.26349E+02  2.05005E+02 -4.20019E+02  1.95477E+02 -1.50469E+02 -4.50333E+02
  1.71293E+02  7.72628E+00  2.23216E+02  3.10921E+02  8.61807E+02  7.81744E+02  4.22286E+02  1.90926E+02
 -1.18976E+03  1.35209E+03 -8.18624E+02  5.11704E+02 -9.67660E+02 -6.20065E+02 -1.01865E+01 -1.66367E+03
  4.25317E+02 -1.08604E+03  7.00554E+02  3.74298E+01  1.13277E+03 -4.07715E+02  6.63434E+02  1.29016E+03
  2.28499E+02  3.92517E+02 -5.70794E+02  6.52701E+02 -2.50312E+02  1.30123E+03 -4.80101E+02 -3.42240E+02
 -5.26838E+02 -5.89833E+02 -5.02155E+02 -3.67469E+00 -8.35436E+02  1.10238E+02 -1.08591E+03 -4.97907E+02
 -1.55346E+03  4.50329E+02 -3.90288E+02 -1.24428E+03  1.14316E+03 -2.41676E+03  7.04455E+02 -1.18865E+01
  1.01556E+03  7.42553E+01 -4.19175E+01 -4.36629E+02  2.73337E+01  1.10836E+03 -2.56101E+02  1.18254E+03
