 $NMID ID='MM_0lb_SNR400_9hz_g45_100.RAW', FMTDAT='(8E13.5)'
 TRAMP=1., VOLUME=1. $END
  3.09545E+05 -1.46910E+01  3.38641E+05  2.51117E+05  8.48835E+04  3.37903E+05 -1.33302E+05  2.52053E+05
 -1.91201E+05  8.35361E+04 -1.12552E+05 -3.22638E+04  1.99191E+02 -5.02074E+04  5.36459E+04 -2.79077E+02
  3.52118E+04  5.28629E+04 -1.66774E+04  7.60946E+04 -6.10997E+04  6.41523E+04 -8.55303E+04  3.30795E+04
 -8.26473E+04 -1.12641E+04 -5.93063E+04 -5.24236E+04 -1.57337E+04 -7.02972E+04  2.85796E+04 -4.66994E+04
  4.18606E+04  3.28444E+03  1.56049E+04  4.82552E+04 -3.48332E+04  4.72970E+04 -6.83499E+04 -5.03060E+02
 -5.51240E+04 -5.77866E+04 -7.02785E+03 -7.95052E+04  3.44489E+04 -5.61144E+04  4.90837E+04 -1.83312E+04
  4.42482E+04  1.13492E+04  3.33130E+04  2.59689E+04  1.54257E+04  3.09349E+04 -6.34351E+03  2.84524E+04
 -2.24193E+04  1.21758E+04 -1.83768E+04 -5.87958E+03  7.23329E+03 -6.82865E+03  2.37324E+04  1.35676E+04
  7.88710E+03  3.66345E+04 -3.41882E+04  3.69448E+04 -6.55416E+04  2.25979E+03 -5.79918E+04 -4.44090E+04
 -1.25309E+04 -6.57721E+04  4.08379E+04 -4.81228E+04  6.17287E+04 -2.83196E+03  3.61105E+04  3.34984E+04
 -5.98010E+03  3.90879E+04 -3.18170E+04  1.91562E+04 -3.25810E+04 -3.14162E+03 -1.83796E+04 -1.18904E+04
 -9.87938E+03 -1.52139E+04  1.40487E+02 -1.94728E+04  8.59448E+03 -2.34064E+04  1.60261E+04 -1.17579E+04
  9.52778E+03  6.11579E+03 -1.01667E+04  1.24508E+04 -2.29395E+04 -6.08841E+03 -8.34267E+03 -3.71789E+04
  2.48903E+04 -4.60729E+04  5.04718E+04 -2.08705E+04  4.87048E+04  2.11786E+04  1.70570E+04  4.60790E+04
 -1.78938E+04  3.56744E+04 -2.65366E+04  2.44990E+03 -1.20165E+04 -2.93739E+04  2.13276E+04 -3.68185E+04
  4.43051E+04 -1.07273E+04  3.97592E+04  2.55479E+04  2.17695E+04  5.09966E+04 -7.75948E+03  5.52140E+04
 -3.57118E+04  3.77559E+04 -4.70227E+04  1.12745E+04 -4.73414E+04 -1.77555E+04 -2.60428E+04 -4.13460E+04
  8.05449E+03 -4.19025E+04  3.36630E+04 -1.72935E+04  3.16665E+04  1.19347E+04  5.30200E+03  2.06577E+04
 -1.34963E+04  9.57484E+03 -1.10755E+04 -7.46172E+03  5.69405E+03 -1.06839E+04  1.89046E+04  6.08809E+03
  1.47408E+04  2.25573E+04 -5.51268E+03  2.65449E+04 -2.32162E+04  1.42146E+04 -3.17353E+04 -2.89636E+03
 -2.51952E+04 -1.90324E+04 -1.14252E+04 -2.37669E+04  4.55993E+03 -2.53789E+04  1.95277E+04 -2.16794E+04
  3.22807E+04 -1.46472E+04  3.71950E+04  4.73738E+03  2.67050E+04  2.44486E+04  4.29220E+03  4.08102E+04
 -1.96592E+04  3.38065E+04 -3.12260E+04  1.19193E+04 -2.23455E+04 -1.01701E+04 -5.09558E+03 -1.25778E+04
  7.31744E+02 -8.62847E+02 -6.87703E+03  6.59773E+03 -1.94391E+04  5.27104E+03 -1.95316E+04 -9.74990E+03
 -1.15783E+04 -2.34906E+04  5.06758E+03 -2.75875E+04  1.83904E+04 -1.95570E+04  2.16475E+04 -1.97420E+03
  1.47371E+04  1.60953E+04 -9.70307E+02  2.23595E+04 -1.62697E+04  1.32310E+04 -2.27504E+04 -4.66462E+03
 -1.74638E+04 -1.99824E+04 -1.92604E+03 -2.76461E+04  1.30351E+04 -2.24236E+04  2.34866E+04 -1.17223E+04
  2.12342E+04  2.98361E+02  1.50945E+04  4.17288E+03  8.25371E+03  6.37970E+02  1.19929E+04 -1.98873E+03
  2.12343E+04  3.16691E+03  2.55959E+04  1.70687E+04  1.71731E+04  3.66411E+04 -2.99354E+03  4.36079E+04
 -2.47561E+04  3.57593E+04 -4.13026E+04  1.82230E+04 -4.43194E+04 -3.23266E+03 -3.55510E+04 -2.54148E+04
 -1.42141E+04 -3.56564E+04  1.24542E+04 -3.13641E+04  2.81173E+04 -1.51945E+04  2.32813E+04  7.04223E+03
  8.80976E+03  1.84521E+04 -1.13251E+04  1.53323E+04 -2.02026E+04  2.22725E+03 -1.50640E+04 -1.21372E+04
 -9.09781E+02 -1.90499E+04  1.02694E+04 -1.45613E+04  1.32970E+04 -1.59090E+03  4.27705E+03  8.30615E+03
 -8.29831E+03  4.23708E+03 -8.69578E+03 -6.11150E+03 -2.13984E+03 -1.69036E+04  1.18537E+04 -1.99571E+04
  2.19639E+04 -1.07956E+04  2.52162E+04  3.08749E+03  2.19584E+04  1.78249E+04  1.03822E+04  2.86092E+04
 -5.71348E+03  3.01242E+04 -2.00543E+04  1.89499E+04 -2.14254E+04  3.58447E+03 -1.52645E+04 -5.82246E+03
 -5.71641E+03 -7.24709E+03  1.39751E+01  1.17643E+02 -3.34427E+03  2.53885E+03 -6.88552E+03  5.23392E+03
 -1.45334E+04 -1.10174E+03 -1.43994E+04 -1.19265E+04 -5.30391E+03 -1.90368E+04  5.62157E+03 -1.52252E+04
  1.34691E+04 -6.10433E+03  8.90941E+03  3.92174E+03 -4.51983E+02  5.42371E+03 -7.95526E+03  3.24221E+02
 -7.25245E+03 -1.01869E+04 -1.81655E+03 -1.53841E+04  8.83179E+03 -1.60846E+04  1.93600E+04 -8.33349E+03
  2.24245E+04  2.11118E+03  1.62360E+04  1.40445E+04  3.76942E+03  1.73089E+04 -8.87425E+03  1.52930E+04
 -1.24315E+04  3.96317E+03 -6.49415E+03 -4.04283E+03  2.44333E+03 -4.39091E+03  8.27173E+03 -1.16453E+03
  7.61192E+03  6.98195E+03  9.87008E+02  1.27883E+04 -8.86493E+03  1.20093E+04 -1.55211E+04  3.10143E+03
 -1.06894E+04 -8.75641E+03 -1.28163E+02 -1.25527E+04  8.90583E+03 -6.44063E+03  9.17061E+03  3.74188E+03
  1.89327E+03  9.56748E+03 -8.02469E+03  1.19228E+04 -1.30800E+04  5.21420E+03 -1.32520E+04 -4.78657E+03
 -7.75168E+03 -1.56549E+04  3.48673E+03 -1.73631E+04  1.56021E+04 -1.06747E+04  1.59526E+04  2.71532E+03
  9.36225E+03  1.25834E+04 -1.40739E+03  1.65224E+04 -1.04138E+04  7.92824E+03 -1.28125E+04 -1.01640E+03
 -1.09582E+04 -1.05421E+04 -1.61716E+03 -1.18066E+04  6.22027E+03 -9.25498E+03  8.12248E+03 -3.74246E+03
  4.70211E+03  1.77977E+03 -1.40349E+03  1.93211E+03 -5.64256E+02 -3.28660E+03  2.65957E+03 -6.61144E+03
  1.09882E+04 -4.46526E+03  1.62691E+04  1.80359E+03  1.50478E+04  1.05487E+04  9.16283E+03  2.10564E+04
 -4.64272E+03  2.40643E+04 -1.99251E+04  1.68916E+04 -2.52108E+04  3.68444E+03 -2.02145E+04 -8.92125E+03
 -1.03376E+04 -1.59098E+04  1.64685E+02 -1.37507E+04  5.51892E+03 -7.66156E+03  5.10311E+03 -5.74200E+03
  4.19572E+03 -2.96654E+03  4.00788E+03 -4.56393E+03  5.91857E+03 -3.51298E+03  7.19066E+03 -1.57972E+03
  1.04791E+04  1.77151E+03  5.34888E+03  9.83489E+03 -2.66495E+03  1.11007E+04 -1.12485E+04  8.97448E+03
 -1.43988E+04 -1.25794E+03 -9.23947E+03 -1.00532E+04 -1.44598E+03 -1.52882E+04  8.15032E+03 -1.55927E+04
  1.66202E+04 -8.35603E+03  1.79955E+04  1.99324E+03  1.26044E+04  1.32651E+04  2.10344E+03  1.73102E+04
 -6.58509E+03  1.41885E+04 -9.97611E+03  5.01092E+03 -7.18934E+03 -2.40995E+03 -2.20265E+03 -2.06753E+03
 -1.42975E+03 -7.76601E+02 -2.00078E+03  2.61760E+03 -5.54946E+03  2.55698E+03 -1.01137E+04 -1.17495E+03
 -7.03263E+03 -9.52541E+03 -1.57623E+02 -1.45821E+04  8.28936E+03 -1.37885E+04  1.45314E+04 -3.98286E+03
  1.44990E+04  6.61982E+03  6.31014E+03  1.36620E+04 -2.94202E+03  1.46537E+04 -1.04192E+04  8.80194E+03
 -1.36284E+04  5.79670E+02 -1.07407E+04 -8.38973E+03 -1.29021E+03 -1.21728E+04  6.15981E+03 -8.72521E+03
  1.03205E+04 -2.31403E+03  6.78654E+03  2.50716E+03  2.38744E+03  3.76919E+03  1.39385E+03  2.06712E+03
  2.42878E+03  1.13691E+03  4.32352E+03  1.89676E+03  4.05126E+03  4.91256E+03  3.93430E+03  7.94297E+03
 -3.68521E+03  1.14889E+04 -1.02589E+04  1.18494E+04 -1.51025E+04  2.47864E+03 -1.52114E+04 -6.41929E+03
 -7.42584E+03 -1.43628E+04  2.25281E+03 -1.62707E+04  8.90615E+03 -1.04585E+04  1.19988E+04 -1.93195E+03
  9.37335E+03  5.50379E+03  2.08006E+03  7.73171E+03 -4.01419E+03  5.24741E+03 -6.41985E+03 -8.42011E+02
 -2.62109E+03 -5.71730E+03  3.19152E+03 -7.39006E+03  5.83971E+03 -3.08601E+03  5.76726E+03  1.40490E+03
  3.38351E+03  3.57952E+03  1.66828E+03  2.46920E+03 -1.01128E+03  2.21591E+03  1.33913E+03 -5.46469E+02
  2.22903E+03  3.24469E+01  5.48491E+03  2.22306E+03  3.72834E+03  8.54164E+03 -1.44289E+03  1.04636E+04
 -7.11116E+03  7.44142E+03 -9.83978E+03  2.02275E+03 -8.73687E+03 -3.52223E+03 -3.70811E+03 -5.70546E+03
  8.96678E+02 -5.82423E+03  4.30661E+03 -3.02721E+03  3.20087E+03  3.29112E+03 -1.69101E+03  3.60578E+03
 -6.50357E+03  2.57851E+03 -6.41902E+03 -3.07723E+03 -3.48108E+03 -7.53865E+03  6.04410E+02 -8.60748E+03
  5.03253E+03 -4.89015E+03  5.77742E+03 -1.23149E+03  4.44904E+03  2.13239E+03  3.76884E+02  4.41298E+03
 -3.47866E+03  1.42575E+03 -3.03212E+03 -2.28673E+03  1.03613E+03 -6.35899E+03  6.56820E+03 -4.26297E+03
  9.33631E+03  5.35921E+02  9.57537E+03  6.80413E+03  4.09713E+03  1.05212E+04 -3.16426E+03  8.65285E+03
 -8.51107E+03  3.64693E+03 -8.38601E+03 -1.40888E+03 -5.22573E+03 -6.37872E+03  1.17357E+03 -6.41877E+03
  5.60085E+03 -2.25624E+03  5.07681E+03  3.33212E+03  2.33943E+03  5.12800E+03 -3.53614E+02  4.77397E+03
 -1.53684E+03  2.65161E+03 -2.79345E+03  4.47831E+02 -1.01358E+03  1.41056E+03 -1.90320E+03  1.52347E+03
 -2.46819E+03  3.14339E+03 -7.03196E+03  3.66629E+03 -9.29182E+03  1.15885E+02 -1.18542E+04 -5.89108E+03
 -5.14709E+03 -1.28899E+04  2.46959E+03 -1.44325E+04  9.18067E+03 -1.20714E+04  1.44859E+04 -3.92893E+03
  1.39300E+04  3.05951E+03  8.89734E+03  8.83947E+03  1.40318E+03  1.02519E+04 -4.51750E+03  7.04356E+03
 -5.64432E+03  3.50800E+03 -3.80260E+03 -1.07951E+03 -1.04767E+03 -1.58953E+02 -8.85652E+02 -1.50463E+02
 -1.53124E+03  2.53249E+02 -2.65050E+03 -2.93572E+01 -4.57061E+02 -1.91916E+03  1.54742E+02 -4.34052E+03
  4.30409E+03 -3.47080E+03  6.31447E+03 -1.71523E+01  6.89758E+03  5.78273E+03  1.70845E+03  1.07113E+04
 -5.16413E+03  1.20143E+04 -1.08085E+04  6.21658E+03 -1.20238E+04 -1.26754E+03 -1.01651E+04 -7.46838E+03
 -3.45017E+03 -1.01109E+04  2.64361E+03 -9.49296E+03  6.10085E+03 -4.71884E+03  7.10955E+03 -7.26069E+01
  3.69596E+03  3.73291E+03  3.61325E+02  2.85073E+03 -2.11330E+03 -3.31814E+01  1.24371E+02 -2.80529E+03
  2.61330E+03 -8.28853E+02  3.56618E+03  1.27414E+03  2.55408E+03  4.32459E+03  5.92768E+02  5.34677E+03
 -5.01167E+03  5.11825E+03 -7.37164E+03 -7.55361E+01 -5.51563E+03 -4.46637E+03 -1.14070E+03 -8.13075E+03
  5.76304E+03 -7.28090E+03  7.67901E+03 -2.07021E+03  7.96662E+03  1.66061E+03  4.59040E+03  5.61879E+03
  8.58697E+02  7.29046E+03 -2.59933E+03  5.29441E+03 -4.35631E+03  2.63251E+03 -3.61169E+03  1.12808E+03
 -2.30584E+03 -7.91151E+02 -2.12076E+03  7.83355E+02 -3.84665E+03  9.72152E+02 -6.08020E+03 -1.57836E+03
 -5.02542E+03 -3.28087E+03 -6.56893E+02 -6.94235E+03  2.83488E+03 -7.60758E+03  6.08851E+03 -3.37995E+03
  7.26794E+03  1.40825E+03  4.21377E+03  4.67835E+03 -1.35652E+03  5.74622E+03 -5.28537E+03  4.75997E+03
