 $NMID ID='MM_0lb_SNR400_15hz_g55_64.RAW', FMTDAT='(8E13.5)'
 TRAMP=1., VOLUME=1. $END
  3.09755E+05  7.66569E+02  3.37639E+05  2.50962E+05  8.48223E+04  3.37754E+05 -1.32940E+05  2.51188E+05
 -1.90751E+05  8.35643E+04 -1.11619E+05 -3.34455E+04  6.50242E+02 -5.04936E+04  5.39292E+04 -2.45045E+02
  3.58059E+04  5.28024E+04 -1.65065E+04  7.56201E+04 -6.09343E+04  6.33295E+04 -8.37700E+04  3.20372E+04
 -8.09078E+04 -1.22363E+04 -5.74881E+04 -5.10702E+04 -1.51964E+04 -6.92788E+04  2.77054E+04 -4.57474E+04
  4.07015E+04  3.68284E+03  1.57500E+04  4.76565E+04 -3.48617E+04  4.75056E+04 -6.72141E+04  1.15874E+02
 -5.36273E+04 -5.72838E+04 -6.72207E+03 -7.67312E+04  3.34319E+04 -5.53983E+04  4.79590E+04 -1.71290E+04
  4.37691E+04  1.13253E+04  3.23206E+04  2.59794E+04  1.55254E+04  2.95800E+04 -5.25054E+03  2.70532E+04
 -2.19340E+04  1.22883E+04 -1.86737E+04 -5.43807E+03  5.75301E+03 -7.46185E+03  2.21780E+04  1.24803E+04
  7.13282E+03  3.55264E+04 -3.26844E+04  3.53260E+04 -6.34868E+04  2.20525E+03 -5.68694E+04 -4.34473E+04
 -1.24315E+04 -6.29759E+04  3.97602E+04 -4.57093E+04  5.82344E+04 -1.98511E+03  3.39784E+04  3.24993E+04
 -6.28417E+03  3.61507E+04 -3.05020E+04  1.57772E+04 -3.00849E+04 -4.44520E+03 -1.64944E+04 -1.08297E+04
 -8.59383E+03 -1.30389E+04 -5.65542E+02 -1.89173E+04  7.60708E+03 -2.28287E+04  1.51655E+04 -1.31367E+04
  1.12241E+04  5.23572E+03 -8.38935E+03  1.28918E+04 -2.15310E+04 -4.76300E+03 -8.00400E+03 -3.36762E+04
  2.31945E+04 -4.33689E+04  4.83454E+04 -1.95791E+04  4.50024E+04  1.92037E+04  1.61891E+04  4.38629E+04
 -1.61984E+04  3.34282E+04 -2.57994E+04  1.89227E+03 -1.01369E+04 -2.79044E+04  2.09059E+04 -3.38639E+04
  4.14510E+04 -9.49302E+03  3.54429E+04  2.42225E+04  1.86319E+04  4.61302E+04 -8.31017E+03  5.04774E+04
 -3.18922E+04  3.40003E+04 -4.18269E+04  8.83401E+03 -4.26243E+04 -1.66499E+04 -2.33972E+04 -3.78500E+04
  8.21556E+03 -3.77081E+04  3.18204E+04 -1.51191E+04  2.89374E+04  1.09205E+04  3.95411E+03  1.91237E+04
 -1.30403E+04  8.24418E+03 -1.04858E+04 -7.83413E+03  5.47854E+03 -1.08732E+04  1.78954E+04  6.35233E+03
  1.36355E+04  2.25247E+04 -5.84182E+03  2.51606E+04 -2.25368E+04  1.20589E+04 -2.83865E+04 -4.91963E+03
 -2.13651E+04 -1.70940E+04 -8.01114E+03 -2.09936E+04  4.35506E+03 -1.96357E+04  1.55237E+04 -1.84548E+04
  2.61953E+04 -1.30892E+04  3.24615E+04  2.33915E+03  2.33492E+04  2.00355E+04  4.12911E+03  3.63166E+04
 -1.76237E+04  3.00722E+04 -2.76011E+04  1.05179E+04 -2.07449E+04 -1.02309E+04 -4.52828E+03 -1.30785E+04
  1.77238E+03 -3.46401E+03 -4.99318E+03  6.39464E+03 -1.57228E+04  5.21323E+03 -1.64351E+04 -7.19399E+03
 -9.52841E+03 -1.88598E+04  4.78395E+03 -2.28535E+04  1.56137E+04 -1.61691E+04  1.76173E+04 -1.83547E+03
  1.09736E+04  1.32144E+04 -9.41933E+02  1.92431E+04 -1.34183E+04  1.14898E+04 -1.90343E+04 -4.49117E+03
 -1.37719E+04 -1.68948E+04 -1.72805E+03 -2.30251E+04  1.06193E+04 -1.84594E+04  1.91584E+04 -9.59616E+03
  1.72412E+04  7.98647E+02  1.25696E+04  4.44831E+03  6.87032E+03  1.20909E+03  9.32961E+03 -1.66390E+03
  1.74441E+04  2.77235E+03  1.92947E+04  1.50904E+04  1.22669E+04  2.96704E+04 -2.77758E+03  3.37734E+04
 -1.94948E+04  2.69275E+04 -3.11470E+04  1.37695E+04 -3.29591E+04 -2.26761E+03 -2.71141E+04 -1.94300E+04
 -1.22540E+04 -2.72163E+04  8.89660E+03 -2.50684E+04  2.07543E+04 -1.27334E+04  1.89378E+04  5.26960E+03
  7.46038E+03  1.45453E+04 -8.92583E+03  1.26590E+04 -1.63078E+04  2.44521E+03 -1.23419E+04 -9.58908E+03
 -2.62385E+02 -1.49699E+04  7.98727E+03 -1.12663E+04  9.80846E+03 -1.69279E+03  1.28773E+03  6.09047E+03
 -6.97606E+03  2.61869E+03 -5.57485E+03 -5.42655E+03  1.14541E+02 -1.37965E+04  9.04590E+03 -1.35777E+04
  1.61654E+04 -7.24221E+03  1.67011E+04  2.61269E+03  1.48453E+04  1.27705E+04  6.79341E+03  1.94615E+04
 -3.12154E+03  2.13060E+04 -1.38851E+04  1.30209E+04 -1.55437E+04  2.93918E+03 -1.10779E+04 -3.12035E+03
 -5.12409E+03 -4.31770E+03 -4.95676E+02  1.41791E+03 -2.24710E+03  1.93321E+03 -4.96031E+03  4.80166E+03
 -1.03071E+04 -7.64630E+02 -1.09554E+04 -8.96009E+03 -4.54126E+03 -1.45243E+04  4.69550E+03 -1.10822E+04
  9.76947E+03 -4.59155E+03  6.79417E+03  3.26967E+03  1.00475E+03  4.21328E+03 -4.86984E+03  1.66081E+02
 -4.32285E+03 -7.03520E+03 -8.68025E+02 -1.05509E+04  5.90490E+03 -1.08638E+04  1.26630E+04 -6.02274E+03
  1.58197E+04  7.13685E+02  1.10438E+04  8.57641E+03  2.45126E+03  1.18062E+04 -6.83830E+03  1.06356E+04
 -9.16143E+03  2.88516E+03 -4.70245E+03 -1.89193E+03  2.06121E+03 -3.30033E+03  6.64398E+03 -1.31678E+03
  5.30578E+03  4.06287E+03  1.33770E+03  8.43274E+03 -5.52642E+03  8.65899E+03 -1.01386E+04  2.30808E+03
 -6.79027E+03 -5.12323E+03  7.36842E+02 -8.79182E+03  5.40668E+03 -3.64566E+03  5.67819E+03  1.65910E+03
  9.57941E+02  5.48987E+03 -5.32515E+03  6.85802E+03 -8.72834E+03  3.23718E+03 -7.57224E+03 -2.39715E+03
 -5.09633E+03 -9.43597E+03  2.44214E+03 -1.11376E+04  9.24992E+03 -6.91574E+03  9.68844E+03  1.50815E+03
  6.69538E+03  7.71266E+03 -2.91382E+02  9.86332E+03 -7.41445E+03  5.85395E+03 -8.20987E+03 -9.15395E+02
 -6.80286E+03 -7.30656E+03 -1.75808E+03 -6.76095E+03  4.26351E+03 -6.39093E+03  4.28655E+03 -2.71349E+03
  3.66237E+03  7.49842E+02 -2.45091E+02  1.64858E+03 -3.43674E+02 -1.05042E+03  8.87868E+02 -3.91104E+03
  6.55275E+03 -1.94976E+03  8.33531E+03  1.13062E+03  1.00651E+04  5.78152E+03  6.76779E+03  1.13938E+04
 -2.40352E+03  1.34432E+04 -1.18798E+04  1.01724E+04 -1.45966E+04  1.83610E+03 -1.18919E+04 -5.10907E+03
 -5.91048E+03 -9.79536E+03 -3.96658E+02 -8.10822E+03  2.93310E+03 -3.73247E+03  2.82121E+03 -3.08562E+03
  1.95516E+03 -1.42563E+03  2.36870E+03 -3.01978E+03  4.83487E+03 -2.28559E+03  4.57247E+03 -5.28755E+02
  6.75608E+03  1.65903E+03  2.95012E+03  4.98183E+03 -2.13143E+03  4.90098E+03 -6.95921E+03  4.59613E+03
 -7.97068E+03 -1.11718E+03 -4.53201E+03 -5.40578E+03 -7.97160E+01 -8.31729E+03  5.02353E+03 -8.77414E+03
  8.73494E+03 -4.84866E+03  1.02279E+04  9.30226E+02  7.53091E+03  7.28034E+03  1.28769E+03  9.61647E+03
 -3.63888E+03  7.94769E+03 -5.62277E+03  2.77665E+03 -3.83395E+03 -1.28917E+03 -1.11196E+03 -1.08090E+03
 -1.35446E+03 -2.63247E+02 -1.45078E+03  2.06093E+03 -3.56862E+03  1.17165E+03 -6.12305E+03 -3.84123E+02
 -3.19239E+03 -6.12402E+03  1.15980E+03 -7.44633E+03  4.65211E+03 -7.00001E+03  6.71401E+03 -1.66308E+03
  7.20835E+03  3.65563E+03  3.47917E+03  5.05207E+03 -1.28198E+03  7.65052E+03 -4.25648E+03  4.48993E+03
 -6.44562E+03  2.52202E+02 -5.53347E+03 -4.38976E+03 -1.35470E+02 -5.64185E+03  2.55695E+03 -4.08318E+03
  4.63284E+03 -1.18247E+03  3.29324E+03  1.29160E+03  8.32423E+02  2.08887E+03  9.29262E+02  3.77906E+02
  1.69709E+03  1.39482E+02  2.08784E+03  9.65876E+02  2.24405E+03  3.29370E+03  2.47789E+03  3.06276E+03
 -2.00943E+03  5.07653E+03 -4.71250E+03  5.68935E+03 -6.62674E+03  2.09102E+03 -7.22600E+03 -1.83239E+03
 -2.66168E+03 -6.67892E+03  5.22994E+02 -7.54992E+03  3.23661E+03 -4.73554E+03  4.57997E+03 -1.40558E+03
  4.26091E+03  2.80996E+03  1.18922E+03  3.80669E+03 -1.58889E+03  1.93040E+03 -2.34423E+03 -3.10151E+02
 -1.36566E+03 -2.86139E+03  1.11554E+03 -2.85270E+03  1.96770E+03 -1.12176E+03  2.74842E+03  1.19715E+02
  1.48260E+03  1.22199E+03  5.16518E+02  4.85818E+02 -5.71689E+02  7.37387E+02  1.31414E+03  5.07296E+01
  3.21453E+02 -2.57092E+02  2.84083E+03  1.56851E+03  8.65981E+02  3.74091E+03 -5.19612E+02  4.62513E+03
 -2.98316E+03  2.52542E+03 -3.32924E+03  5.19119E+02 -3.77560E+03 -1.44083E+03 -8.45631E+02 -2.55864E+03
  9.48238E+02 -1.79660E+03  1.59650E+03 -2.11451E+03  1.63627E+03  1.75082E+03 -1.24926E+03  2.31042E+03
 -3.21929E+03  1.89503E+03 -2.07978E+03 -1.89783E+03 -1.56477E+03 -4.01308E+03  1.86341E+02 -3.75588E+03
  1.97983E+03 -1.42691E+03  2.05067E+03 -5.15228E+02  2.49303E+03  8.74152E+02  6.97987E+02  2.34081E+03
 -9.19607E+02  3.09646E+02 -2.01577E+03 -1.27762E+03  9.75126E+02 -2.22948E+03  2.51454E+03 -2.34037E+03
  3.40039E+03  8.54271E+02  3.60921E+03  2.42662E+03  1.79920E+03  4.30195E+03 -1.19795E+03  3.13504E+03
 -3.45696E+03  1.21678E+03 -3.70107E+03 -3.91676E+02 -1.24408E+03 -1.90914E+03  1.51700E+02 -2.16722E+03
  2.08925E+03 -1.36451E+03  1.53862E+03  1.00041E+03  9.20221E+01  2.47720E+03  1.69018E+02  1.79775E+03
 -9.11726E+02  1.57550E+03 -1.07520E+03  3.92042E+02 -4.21596E+02  1.25031E+03 -3.14714E+02  5.73145E+02
 -1.06032E+03  1.70212E+03 -2.75689E+03  4.66038E+02 -3.76887E+03 -1.86764E+02 -3.88054E+03 -1.62026E+03
 -1.58790E+03 -4.83548E+03  7.13148E+02 -5.45966E+03  1.92928E+03 -4.19083E+03  4.77851E+03 -1.47170E+03
  5.47364E+03  3.30121E+01  2.88041E+03  3.51835E+03 -2.06630E+02  3.19263E+03 -1.82619E+03  2.76168E+03
 -2.15824E+03  1.27924E+03 -8.37903E+02 -1.00791E+02 -6.45110E+01  4.38880E+02 -7.34645E+02  3.67490E+02
 -9.93941E+02 -3.76011E+02 -1.29956E+03  3.17195E+02  1.83899E+02 -1.22310E+03 -2.06132E+02 -1.35851E+03
  2.34848E+03 -7.93669E+02  2.05246E+03  3.82194E+02  2.40461E+03  1.93255E+03  7.51902E+02  3.26958E+03
 -1.34875E+03  3.97906E+03 -2.95787E+03  2.48645E+03 -4.22593E+03 -8.07437E+02 -2.76055E+03 -2.01391E+03
 -1.23226E+03 -3.59038E+03  1.32778E+03 -2.88269E+03  1.98847E+03 -1.30002E+03  1.74364E+03  4.03958E+02
  1.01630E+03  7.42524E+02  6.39750E+01  1.12436E+03 -8.80595E+02 -1.84364E+02 -4.14034E+02 -6.11740E+02
  7.37797E+02 -1.16411E+02  2.52110E+02  1.33933E+03  6.35281E+02  1.31058E+03  2.94304E+02  1.15793E+03
 -1.40441E+03  9.96806E+02 -2.10783E+03  8.09129E+02 -2.01984E+03 -8.32699E+02 -6.52632E+02 -3.05280E+03
  1.70461E+03 -2.16224E+03  1.46877E+03 -1.35539E+02  2.60094E+03 -8.28878E+01  1.18792E+03  1.37729E+03
  6.77904E+02  8.69037E+02 -3.62394E+02  1.07424E+03 -1.35810E+03  9.32366E+02 -3.21358E+02 -1.66494E+02
 -6.45213E+02  3.24461E+02 -1.20941E+03 -2.46579E+02 -7.02685E+02  4.35197E+02 -1.17332E+03 -9.77976E+01
 -1.27210E+03 -6.06422E+02 -7.72232E+02 -2.01507E+03  1.31178E+03 -2.20993E+03  2.36326E+03 -6.27286E+02
  1.91190E+03  1.77829E+01  5.56458E+02  1.46847E+03 -2.75981E+02  2.08487E+03 -1.09493E+03  1.08145E+03
