 $NMID ID='MM_0lb_SNR400_10hz_g40_56.RAW', FMTDAT='(8E13.5)'
 TRAMP=1., VOLUME=1. $END
  3.09857E+05  2.24083E+02  3.37825E+05  2.50169E+05  8.54828E+04  3.38220E+05 -1.32819E+05  2.51032E+05
 -1.90820E+05  8.35392E+04 -1.12155E+05 -3.26025E+04  5.40856E+02 -5.04316E+04  5.39141E+04 -2.34717E+02
  3.53310E+04  5.23357E+04 -1.69063E+04  7.62074E+04 -6.11094E+04  6.40379E+04 -8.50359E+04  3.20177E+04
 -8.19214E+04 -1.14260E+04 -5.84633E+04 -5.13910E+04 -1.44644E+04 -7.06994E+04  2.79108E+04 -4.65188E+04
  4.03038E+04  3.71487E+03  1.59975E+04  4.84045E+04 -3.42601E+04  4.78972E+04 -6.75694E+04  9.58694E+01
 -5.38260E+04 -5.78575E+04 -7.47475E+03 -7.75139E+04  3.50573E+04 -5.58321E+04  4.88554E+04 -1.75415E+04
  4.50335E+04  1.16222E+04  3.28884E+04  2.59805E+04  1.55703E+04  3.06950E+04 -5.72620E+03  2.80608E+04
 -2.25505E+04  1.20003E+04 -1.82995E+04 -5.26611E+03  6.79963E+03 -7.34754E+03  2.30878E+04  1.33666E+04
  7.26304E+03  3.69228E+04 -3.31135E+04  3.62310E+04 -6.52161E+04  2.47385E+03 -5.77336E+04 -4.35600E+04
 -1.31212E+04 -6.47803E+04  4.06864E+04 -4.63074E+04  5.99990E+04 -1.98667E+03  3.56556E+04  3.25424E+04
 -5.77869E+03  3.80228E+04 -3.07796E+04  1.71392E+04 -3.25994E+04 -4.41767E+03 -1.85460E+04 -1.15965E+04
 -9.07567E+03 -1.36795E+04 -2.50805E+02 -1.93186E+04  7.40456E+03 -2.31082E+04  1.60793E+04 -1.28245E+04
  1.04417E+04  5.90908E+03 -9.88495E+03  1.28382E+04 -2.20836E+04 -5.75852E+03 -9.08738E+03 -3.54321E+04
  2.44162E+04 -4.52092E+04  5.07449E+04 -2.05472E+04  4.67148E+04  2.00894E+04  1.68002E+04  4.68946E+04
 -1.61505E+04  3.46500E+04 -2.64892E+04  1.59409E+03 -1.14051E+04 -2.94771E+04  2.16040E+04 -3.64091E+04
  4.34988E+04 -9.49345E+03  3.83759E+04  2.41955E+04  2.04877E+04  4.89897E+04 -8.22337E+03  5.31783E+04
 -3.41524E+04  3.65206E+04 -4.55946E+04  1.00345E+04 -4.53019E+04 -1.79642E+04 -2.48043E+04 -3.99174E+04
  8.12406E+03 -4.05157E+04  3.35604E+04 -1.55457E+04  3.10560E+04  1.12301E+04  4.60264E+03  1.99325E+04
 -1.39677E+04  9.34616E+03 -1.08624E+04 -7.72168E+03  5.42791E+03 -1.11345E+04  1.83442E+04  5.20386E+03
  1.40699E+04  2.19730E+04 -5.47239E+03  2.64879E+04 -2.35013E+04  1.35867E+04 -3.00353E+04 -3.95017E+03
 -2.31559E+04 -1.76428E+04 -1.03910E+04 -2.38170E+04  4.24367E+03 -2.33459E+04  1.82342E+04 -2.18473E+04
  2.97720E+04 -1.37205E+04  3.59486E+04  3.47992E+03  2.50963E+04  2.27430E+04  4.76784E+03  3.97879E+04
 -1.95142E+04  3.21171E+04 -2.96014E+04  1.08821E+04 -2.16446E+04 -9.98016E+03 -5.34009E+03 -1.24633E+04
  7.79701E+02 -2.02067E+03 -6.97401E+03  8.91883E+03 -1.94601E+04  4.84701E+03 -1.88308E+04 -8.46457E+03
 -1.14915E+04 -2.19793E+04  5.70612E+03 -2.53393E+04  1.77299E+04 -1.84061E+04  2.08942E+04 -1.97420E+03
  1.30629E+04  1.46760E+04 -1.06596E+03  2.13351E+04 -1.48541E+04  1.15727E+04 -2.20429E+04 -4.24796E+03
 -1.53480E+04 -1.90702E+04 -2.73753E+03 -2.59249E+04  1.18153E+04 -2.22462E+04  2.15441E+04 -1.06779E+04
  2.02433E+04  1.71126E+02  1.52726E+04  4.93569E+03  8.36516E+03  1.36096E+03  1.17236E+04 -2.18795E+03
  1.99528E+04  2.59995E+03  2.35892E+04  1.71627E+04  1.56567E+04  3.39379E+04 -3.14702E+03  4.07855E+04
 -2.29830E+04  3.26825E+04 -3.81615E+04  1.69664E+04 -4.04706E+04 -2.95832E+03 -3.25829E+04 -2.32019E+04
 -1.25753E+04 -3.34519E+04  1.15540E+04 -2.90222E+04  2.51853E+04 -1.47064E+04  2.25159E+04  6.08427E+03
  7.60949E+03  1.72925E+04 -1.09650E+04  1.46988E+04 -1.89576E+04  2.45692E+03 -1.36333E+04 -1.22333E+04
 -3.46438E+01 -1.75065E+04  8.90779E+03 -1.33137E+04  1.28596E+04 -1.06567E+03  2.10019E+03  7.87198E+03
 -8.19701E+03  3.32336E+03 -7.51246E+03 -6.45929E+03 -1.68081E+03 -1.62316E+04  1.09748E+04 -1.77921E+04
  2.02286E+04 -9.24980E+03  2.32979E+04  3.04755E+03  1.97907E+04  1.69820E+04  9.53997E+03  2.54096E+04
 -5.13937E+03  2.75270E+04 -1.82559E+04  1.75580E+04 -2.08008E+04  4.02165E+03 -1.41738E+04 -4.99615E+03
 -6.21232E+03 -6.59876E+03 -1.34908E+03  7.57497E+02 -2.04823E+03  3.06517E+03 -5.81519E+03  5.01109E+03
 -1.27095E+04 -4.55250E+02 -1.35841E+04 -1.07652E+04 -5.97850E+03 -1.75752E+04  5.72637E+03 -1.42901E+04
  1.09784E+04 -5.99717E+03  8.49482E+03  3.49333E+03 -3.97222E+01  5.88362E+03 -7.19039E+03 -8.52949E+02
 -6.53615E+03 -1.00582E+04 -1.13487E+03 -1.36065E+04  7.82169E+03 -1.44359E+04  1.75256E+04 -8.07557E+03
  2.09594E+04  1.79272E+03  1.51501E+04  1.27578E+04  3.03181E+03  1.69575E+04 -8.42427E+03  1.35985E+04
 -1.13808E+04  3.64502E+03 -6.82087E+03 -2.71549E+03  1.63761E+03 -4.03843E+03  7.42173E+03 -1.26508E+03
  6.71120E+03  6.15685E+03  6.37714E+02  1.13342E+04 -8.34130E+03  1.13350E+04 -1.35205E+04  2.50837E+03
 -9.51475E+03 -6.97813E+03  1.32051E+02 -1.18205E+04  7.58450E+03 -5.96477E+03  8.19583E+03  2.59448E+03
  2.54227E+03  8.87704E+03 -7.42447E+03  9.54685E+03 -1.23219E+04  4.18324E+03 -1.13196E+04 -4.59131E+03
 -6.10964E+03 -1.34322E+04  3.07594E+03 -1.55940E+04  1.34050E+04 -9.24605E+03  1.50333E+04  2.36227E+03
  9.10988E+03  1.10378E+04 -1.11297E+03  1.41710E+04 -1.01984E+04  8.02524E+03 -1.09044E+04 -5.67616E+02
 -9.35739E+03 -8.89121E+03 -1.76852E+03 -1.05653E+04  5.67259E+03 -8.82907E+03  7.20432E+03 -3.55535E+03
  4.76744E+03  1.94277E+03 -1.86666E+03  2.28727E+03 -5.56741E+02 -2.62139E+03  1.99660E+03 -6.39559E+03
  1.03783E+04 -3.79279E+03  1.39185E+04  1.45162E+03  1.39120E+04  9.41326E+03  8.78040E+03  1.76096E+04
 -4.38127E+03  2.01436E+04 -1.78157E+04  1.45486E+04 -2.19412E+04  3.10462E+03 -1.76473E+04 -8.34129E+03
 -8.91166E+03 -1.47644E+04 -5.76581E+02 -1.27188E+04  5.13453E+03 -7.24818E+03  4.82015E+03 -4.89490E+03
  2.45003E+03 -1.42592E+03  3.72952E+03 -3.48010E+03  5.05330E+03 -3.76288E+03  6.90083E+03 -6.26492E+02
  8.70550E+03  2.06707E+03  3.97052E+03  8.28005E+03 -2.16554E+03  9.76322E+03 -1.00490E+04  7.85814E+03
 -1.18785E+04 -1.59295E+03 -7.23938E+03 -8.13481E+03 -1.19529E+03 -1.34312E+04  6.82296E+03 -1.28747E+04
  1.38847E+04 -7.83700E+03  1.69060E+04  2.85478E+03  1.16082E+04  1.10372E+04  1.57279E+03  1.49708E+04
 -6.17866E+03  1.23553E+04 -8.44379E+03  4.09260E+03 -5.97400E+03 -1.42898E+03 -2.73730E+03 -1.81127E+03
 -1.61504E+03 -3.28457E+02 -1.63615E+03  2.56831E+03 -5.12529E+03  1.56689E+03 -8.95521E+03 -8.48954E+02
 -6.02110E+03 -9.44860E+03  1.86350E+02 -1.25878E+04  7.39591E+03 -1.09596E+04  1.21431E+04 -4.26816E+03
  1.21101E+04  6.04187E+03  5.36541E+03  1.03241E+04 -2.04223E+03  1.30778E+04 -9.22603E+03  7.45919E+03
 -1.15007E+04  7.58796E+02 -8.67993E+03 -6.99772E+03 -9.47995E+02 -9.75364E+03  5.18420E+03 -8.31343E+03
  8.10667E+03 -2.35684E+03  5.75514E+03  2.98745E+03  1.42559E+03  4.19438E+03  1.54567E+03  1.65751E+03
  3.37864E+03  4.32555E+02  2.54978E+03  1.81895E+03  4.40326E+03  4.54593E+03  3.25375E+03  6.05732E+03
 -2.83963E+03  9.61132E+03 -8.57137E+03  9.81235E+03 -1.27084E+04  2.64100E+03 -1.39855E+04 -4.73632E+03
 -6.37091E+03 -1.31313E+04  1.17384E+03 -1.40138E+04  7.49831E+03 -8.78598E+03  9.56981E+03 -2.25434E+03
  8.47962E+03  4.65401E+03  2.38815E+03  7.18270E+03 -3.89297E+03  5.00910E+03 -5.33916E+03 -1.06349E+03
 -2.67681E+03 -5.21538E+03  3.54521E+03 -5.71540E+03  5.21592E+03 -2.70976E+03  5.07903E+03  1.14112E+03
  3.53940E+03  1.92949E+03  1.23692E+03  1.85711E+03 -9.09265E+02  1.22213E+03  1.70614E+03 -5.12966E+02
  2.33200E+03 -3.76862E+02  5.68036E+03  1.62875E+03  3.52849E+03  7.41685E+03 -1.23474E+03  8.82315E+03
 -5.53278E+03  6.34667E+03 -7.40057E+03  1.58110E+03 -6.85876E+03 -2.77209E+03 -3.13858E+03 -5.16664E+03
  5.42146E+02 -4.50653E+03  3.01083E+03 -1.65720E+03  3.22594E+03  2.89191E+03 -1.75187E+03  4.00069E+03
 -6.18589E+03  2.55390E+03 -5.55815E+03 -3.26586E+03 -3.72709E+03 -6.72753E+03  8.27623E+02 -7.11126E+03
  3.92115E+03 -3.92405E+03  5.58452E+03 -3.08780E+02  3.63973E+03  1.89279E+03  4.91786E+02  3.60809E+03
 -1.76445E+03  1.67409E+03 -3.25566E+03 -2.34337E+03  1.35325E+03 -5.63327E+03  5.98370E+03 -3.81941E+03
  7.47758E+03  6.92558E+02  7.49071E+03  4.52085E+03  2.87028E+03  8.38568E+03 -2.80282E+03  7.64364E+03
 -6.75510E+03  3.12718E+03 -7.10898E+03 -8.53870E+01 -3.38847E+03 -5.39219E+03  7.34829E+02 -4.92186E+03
  5.02114E+03 -2.74770E+03  4.03549E+03  2.86916E+03  1.16858E+03  4.39768E+03 -6.33127E+02  3.81825E+03
 -2.04805E+03  2.74347E+03 -1.55115E+03 -1.50395E+02 -1.00659E+03  8.33459E+02 -1.38634E+03  2.32927E+03
 -2.18007E+03  3.28369E+03 -5.10214E+03  2.94223E+03 -8.00417E+03  6.91342E+02 -9.69242E+03 -5.47143E+03
 -5.38385E+03 -1.09193E+04  2.61993E+03 -1.26772E+04  7.03413E+03 -9.73084E+03  1.18859E+04 -3.68595E+03
  1.05337E+04  2.08830E+03  6.26826E+03  7.95544E+03  1.92642E+02  7.98694E+03 -3.10580E+03  5.40825E+03
 -4.70244E+03  2.36813E+03 -2.30374E+03 -6.05984E+02 -1.13473E+03 -9.56921E+02 -8.96984E+02 -3.97603E+02
 -1.82849E+03 -2.13931E+02 -1.54235E+03 -9.19676E+02 -2.65394E+02 -1.84748E+03  6.19232E+02 -3.11959E+03
  4.05629E+03 -3.47875E+03  5.48783E+03  2.81483E+02  5.99327E+03  4.70033E+03  2.42489E+03  8.24055E+03
 -3.06525E+03  8.89265E+03 -8.34417E+03  5.45934E+03 -1.00494E+04 -1.09582E+03 -7.53089E+03 -6.45043E+03
 -3.05687E+03 -8.43532E+03  3.06347E+03 -7.69782E+03  4.19277E+03 -4.42967E+03  5.09295E+03  3.52809E+01
  3.24337E+03  2.16260E+03 -9.97284E+01  1.88672E+03 -1.39476E+03  3.86347E+02 -5.51555E+02 -2.12007E+03
  2.44034E+03 -3.55867E+02  3.22736E+03  6.67808E+02  2.38217E+03  2.54688E+03  7.56812E+02  4.93144E+03
 -3.47282E+03  3.54573E+03 -5.00269E+03  1.39802E+03 -5.09990E+03 -3.98998E+03 -1.20913E+03 -6.80292E+03
  3.83572E+03 -5.93354E+03  6.20428E+03 -1.70674E+03  6.55005E+03  1.36393E+03  3.05250E+03  4.90760E+03
  8.39298E+02  4.88856E+03 -2.89713E+03  4.96245E+03 -2.91207E+03  2.02620E+03 -3.40265E+03  8.98979E+02
 -9.18210E+02  2.68297E+02 -2.05370E+03  6.34994E+02 -3.13286E+03  7.54368E+02 -4.43398E+03 -1.02661E+03
 -3.66455E+03 -2.81792E+03 -1.12833E+03 -5.41088E+03  2.66292E+03 -5.67209E+03  4.81484E+03 -3.13236E+03
  6.21484E+03  2.11759E+02  2.30307E+03  3.50131E+03 -7.86510E+02  5.75813E+03 -4.11728E+03  3.37928E+03
