 $NMID ID='MM_0lb_SNR400_8hz_g50_27.RAW', FMTDAT='(8E13.5)'
 TRAMP=1., VOLUME=1. $END
  3.09643E+05 -3.74721E+02  3.38160E+05  2.51275E+05  8.58995E+04  3.39071E+05 -1.32799E+05  2.52589E+05
 -1.91093E+05  8.44967E+04 -1.13068E+05 -3.24153E+04  2.48923E+02 -5.18790E+04  5.27591E+04 -1.73648E+03
  3.48857E+04  5.28339E+04 -1.70193E+04  7.56310E+04 -6.19704E+04  6.51084E+04 -8.52469E+04  3.18961E+04
 -8.28797E+04 -1.20208E+04 -5.87324E+04 -5.35736E+04 -1.45606E+04 -7.06588E+04  2.85827E+04 -4.60341E+04
  4.17528E+04  3.04919E+03  1.68298E+04  4.86855E+04 -3.41589E+04  4.84823E+04 -6.79838E+04  8.35204E+01
 -5.37620E+04 -5.76636E+04 -6.36691E+03 -7.84872E+04  3.52668E+04 -5.71839E+04  4.94266E+04 -1.82093E+04
  4.56192E+04  1.14061E+04  3.33058E+04  2.71633E+04  1.63749E+04  3.14445E+04 -6.69824E+03  2.81689E+04
 -2.29634E+04  1.16195E+04 -1.81225E+04 -5.62557E+03  7.35243E+03 -8.07947E+03  2.45383E+04  1.42501E+04
  7.93681E+03  3.74396E+04 -3.43167E+04  3.71670E+04 -6.61582E+04  2.30493E+03 -5.98653E+04 -4.47744E+04
 -1.22266E+04 -6.60716E+04  4.18199E+04 -4.78336E+04  6.18823E+04 -2.53524E+03  3.71406E+04  3.42922E+04
 -5.17351E+03  4.03655E+04 -3.08720E+04  1.91908E+04 -3.48380E+04 -3.33248E+03 -1.98473E+04 -1.16187E+04
 -9.63591E+03 -1.58404E+04 -1.55934E+03 -1.99137E+04  8.38747E+03 -2.34595E+04  1.54782E+04 -1.28178E+04
  1.03776E+04  6.16353E+03 -1.02378E+04  1.27154E+04 -2.31762E+04 -6.96486E+03 -8.66976E+03 -3.92328E+04
  2.58009E+04 -4.75423E+04  5.30109E+04 -2.12233E+04  4.94943E+04  2.13173E+04  1.73062E+04  4.70119E+04
 -1.65367E+04  3.68554E+04 -2.73193E+04  2.80360E+03 -1.11779E+04 -2.95539E+04  2.13761E+04 -3.80204E+04
  4.54445E+04 -1.13840E+04  4.21184E+04  2.49124E+04  2.14554E+04  5.10262E+04 -8.81478E+03  5.65362E+04
 -3.58971E+04  3.93644E+04 -4.86468E+04  1.17158E+04 -4.89164E+04 -1.90642E+04 -2.64558E+04 -4.33888E+04
  8.11202E+03 -4.30944E+04  3.46355E+04 -1.76822E+04  3.24885E+04  1.05688E+04  6.29255E+03  2.15618E+04
 -1.41572E+04  1.04732E+04 -1.13214E+04 -7.49287E+03  5.73062E+03 -1.15146E+04  1.86347E+04  5.06491E+03
  1.47504E+04  2.24289E+04 -5.61204E+03  2.74092E+04 -2.37101E+04  1.44458E+04 -3.20216E+04 -2.71662E+03
 -2.69179E+04 -1.86966E+04 -1.22686E+04 -2.59782E+04  4.64539E+03 -2.63474E+04  2.11870E+04 -2.31016E+04
  3.24413E+04 -1.38708E+04  3.95052E+04  5.29095E+03  2.78594E+04  2.54728E+04  3.52568E+03  4.28393E+04
 -2.01557E+04  3.53568E+04 -3.07662E+04  1.11961E+04 -2.25694E+04 -9.88840E+03 -4.51884E+03 -1.31060E+04
  3.06267E+01 -6.69156E+02 -8.63697E+03  8.89084E+03 -2.12267E+04  5.32723E+03 -2.10516E+04 -1.01868E+04
 -1.24473E+04 -2.47762E+04  5.84703E+03 -2.89697E+04  1.97157E+04 -1.94158E+04  2.37120E+04 -1.68178E+03
  1.51184E+04  1.68491E+04 -1.64101E+03  2.38931E+04 -1.66319E+04  1.34591E+04 -2.47436E+04 -5.16868E+03
 -1.81122E+04 -2.25376E+04 -2.50620E+03 -2.91560E+04  1.34086E+04 -2.34878E+04  2.41599E+04 -1.22673E+04
  2.36773E+04 -1.29341E+03  1.65163E+04  5.38917E+03  9.32948E+03  2.07783E+03  1.23938E+04 -1.79334E+03
  2.24629E+04  3.32291E+03  2.68572E+04  1.87533E+04  1.87364E+04  3.98925E+04 -2.70366E+03  4.55666E+04
 -2.55271E+04  3.96381E+04 -4.40240E+04  2.01417E+04 -4.70089E+04 -3.41487E+03 -3.80609E+04 -2.78082E+04
 -1.47356E+04 -3.89054E+04  1.39757E+04 -3.39318E+04  2.98429E+04 -1.56110E+04  2.52331E+04  8.43285E+03
  9.20024E+03  1.93859E+04 -1.26182E+04  1.69473E+04 -2.02368E+04  2.66417E+03 -1.63544E+04 -1.36301E+04
 -1.23375E+02 -1.99135E+04  1.22932E+04 -1.50628E+04  1.38384E+04 -1.14716E+03  3.38079E+03  9.85475E+03
 -8.85576E+03  3.51114E+03 -9.09479E+03 -7.82321E+03 -1.98657E+03 -1.88554E+04  1.22490E+04 -2.13682E+04
  2.44901E+04 -1.15067E+04  2.86327E+04  3.74448E+03  2.49024E+04  2.01343E+04  1.13878E+04  3.08248E+04
 -6.37726E+03  3.35413E+04 -2.18116E+04  2.06175E+04 -2.39589E+04  3.43339E+03 -1.60071E+04 -6.26371E+03
 -7.09094E+03 -7.68597E+03 -1.69500E+02  1.74132E+02 -3.29544E+03  3.74959E+03 -7.72881E+03  5.62221E+03
 -1.43866E+04 -1.20878E+03 -1.64753E+04 -1.25527E+04 -6.88381E+03 -2.03254E+04  7.00061E+03 -1.64749E+04
  1.41886E+04 -7.60170E+03  1.01553E+04  4.14648E+03 -9.42863E+02  6.58085E+03 -9.00027E+03 -3.32613E+02
 -7.92067E+03 -1.02923E+04 -1.40650E+03 -1.64514E+04  9.77623E+03 -1.80854E+04  2.19904E+04 -9.09960E+03
  2.49663E+04  2.10047E+03  1.88388E+04  1.60244E+04  3.26999E+03  2.04185E+04 -9.83811E+03  1.59946E+04
 -1.21799E+04  4.71182E+03 -6.61255E+03 -3.33321E+03  2.53775E+03 -4.45914E+03  9.23674E+03 -6.81144E+02
  7.11260E+03  7.74202E+03  1.74990E+03  1.43270E+04 -9.12663E+03  1.25526E+04 -1.66580E+04  3.00108E+03
 -1.12484E+04 -9.49160E+03  1.13958E+02 -1.47769E+04  1.00060E+04 -7.56589E+03  1.02105E+04  4.73812E+03
  2.13101E+03  1.14415E+04 -8.27064E+03  1.29303E+04 -1.62810E+04  6.20207E+03 -1.57732E+04 -5.51862E+03
 -8.75967E+03 -1.78810E+04  4.13574E+03 -1.96285E+04  1.70717E+04 -1.19332E+04  1.83996E+04  3.90025E+03
  1.01906E+04  1.53498E+04 -1.52940E+03  1.64367E+04 -1.22939E+04  9.50050E+03 -1.35260E+04 -1.64233E+03
 -1.07867E+04 -1.09921E+04 -2.88866E+03 -1.38934E+04  6.81354E+03 -1.03989E+04  8.89139E+03 -4.38334E+03
  6.08785E+03  2.55069E+03 -9.35346E+02  1.56000E+03 -1.21872E+03 -3.30672E+03  3.38511E+03 -8.09220E+03
  1.20464E+04 -4.65063E+03  1.74447E+04  1.49080E+03  1.66076E+04  1.25330E+04  1.12326E+04  2.27750E+04
 -4.91244E+03  2.70622E+04 -2.15695E+04  1.88752E+04 -2.83924E+04  3.17918E+03 -2.36868E+04 -9.48596E+03
 -1.11753E+04 -1.80754E+04 -4.97750E+02 -1.64757E+04  6.13299E+03 -8.05434E+03  5.69579E+03 -5.49686E+03
  3.61191E+03 -3.80764E+03  4.44406E+03 -5.10212E+03  6.23540E+03 -3.53067E+03  8.56092E+03 -1.25327E+03
  1.19465E+04  2.18565E+03  7.59101E+03  1.05290E+04 -1.85258E+03  1.23599E+04 -1.20604E+04  9.96403E+03
 -1.66899E+04 -1.91288E+03 -1.04518E+04 -1.10685E+04 -2.19529E+03 -1.77545E+04  9.88701E+03 -1.77251E+04
  1.82678E+04 -9.57808E+03  2.18283E+04  2.89660E+03  1.55571E+04  1.49670E+04  1.67463E+03  1.97738E+04
 -7.81057E+03  1.53994E+04 -1.19602E+04  5.31419E+03 -8.30782E+03 -1.45157E+03 -2.91882E+03 -2.56748E+03
 -6.25360E+02  2.56141E+01 -2.78704E+03  2.81611E+03 -6.09628E+03  2.46283E+03 -1.08107E+04 -1.85263E+03
 -7.88878E+03 -1.20461E+04 -4.72726E+02 -1.70525E+04  9.60859E+03 -1.54536E+04  1.63102E+04 -5.05540E+03
  1.62655E+04  8.25242E+03  7.74607E+03  1.48372E+04 -2.59316E+03  1.65456E+04 -1.28790E+04  1.05243E+04
 -1.49008E+04  3.66542E+02 -1.19332E+04 -1.08092E+04 -1.20477E+03 -1.38519E+04  6.66033E+03 -9.81940E+03
  1.09797E+04 -3.42670E+03  8.18421E+03  3.31037E+03  2.44816E+03  5.07568E+03  1.43605E+03  1.50911E+03
  1.97864E+03  1.60465E+03  3.66031E+03  1.73059E+03  4.43190E+03  5.74808E+03  3.78765E+03  8.76344E+03
 -3.06033E+03  1.35506E+04 -1.19003E+04  1.38998E+04 -1.75173E+04  3.26173E+03 -1.76107E+04 -7.39543E+03
 -8.90340E+03 -1.76190E+04  1.59676E+03 -1.86516E+04  1.12608E+04 -1.29737E+04  1.37253E+04 -2.75650E+03
  1.10797E+04  6.12772E+03  2.47062E+03  9.60211E+03 -5.50038E+03  6.45821E+03 -8.05140E+03 -1.18751E+03
 -3.46169E+03 -7.36080E+03  3.07123E+03 -6.80516E+03  8.09265E+03 -4.01603E+03  7.97895E+03  1.56175E+03
  4.99402E+03  3.40212E+03  1.45784E+03  2.89961E+03 -5.81495E+02  2.41100E+03  1.59968E+03 -9.36497E+02
  2.65796E+03 -9.20268E+02  6.33865E+03  2.71318E+03  3.67239E+03  9.52576E+03 -1.89931E+03  1.19634E+04
 -7.86930E+03  8.29774E+03 -1.10490E+04  2.57340E+03 -1.01396E+04 -3.35868E+03 -4.19600E+03 -7.17795E+03
  7.84849E+02 -6.66822E+03  4.77203E+03 -2.91467E+03  3.48372E+03  3.64085E+03 -1.97412E+03  5.99832E+03
 -7.49443E+03  3.88087E+03 -8.70518E+03 -4.40862E+03 -4.28182E+03 -9.22015E+03  1.45515E+03 -9.24552E+03
  6.28985E+03 -6.44751E+03  6.52497E+03 -7.09185E+02  5.87403E+03  2.24054E+03  1.33189E+03  5.47069E+03
 -3.35657E+03  1.44157E+03 -4.04968E+03 -3.65065E+03  1.76059E+03 -7.49586E+03  8.50872E+03 -5.73593E+03
  1.23461E+04  7.65889E+02  1.03015E+04  7.82746E+03  2.93200E+03  1.32922E+04 -4.31523E+03  1.15092E+04
 -9.83783E+03  4.91651E+03 -9.82425E+03 -1.13037E+03 -4.82046E+03 -7.16945E+03  1.94454E+03 -7.46299E+03
  7.17686E+03 -4.01441E+03  5.76352E+03  2.70566E+03  1.84632E+03  7.04122E+03 -1.30266E+03  5.80863E+03
 -3.92650E+03  3.75330E+03 -2.31117E+03  1.16218E+03 -1.01622E+03  1.59797E+03 -1.17653E+03  2.90597E+03
 -3.22038E+03  4.86743E+03 -7.22675E+03  4.55897E+03 -1.18891E+04  5.34442E+02 -1.31501E+04 -7.91726E+03
 -6.26562E+03 -1.62530E+04  3.39393E+03 -1.74662E+04  1.12157E+04 -1.46831E+04  1.67462E+04 -5.46108E+03
  1.51355E+04  2.97175E+03  9.18484E+03  1.05824E+04  1.54005E+03  1.19341E+04 -5.28754E+03  8.72789E+03
 -7.19963E+03  3.49281E+03 -4.36908E+03 -2.04793E+03 -1.26973E+03 -1.29786E+03 -5.92400E+02  6.31017E+02
 -2.52837E+03  2.56009E+02 -3.26148E+03 -1.56224E+03 -1.77671E+02 -2.28354E+03  1.41184E+02 -4.37447E+03
  5.49023E+03 -4.05235E+03  7.86733E+03 -3.91974E+02  9.10599E+03  6.98093E+03  2.94456E+03  1.31947E+04
 -6.05162E+03  1.43984E+04 -1.24926E+04  8.64639E+03 -1.58381E+04 -7.89363E+02 -1.14932E+04 -9.29387E+03
 -3.98901E+03 -1.28377E+04  3.51044E+03 -1.18431E+04  7.84160E+03 -6.72932E+03  8.37611E+03  5.08439E+02
  5.03278E+03  4.84440E+03 -5.25146E+02  3.22368E+03 -1.90879E+03 -1.21397E+02  1.58796E+02 -3.83766E+03
  3.17327E+03 -1.42561E+03  4.66583E+03  1.68579E+03  2.38519E+03  5.69707E+03  5.31502E+02  5.54061E+03
 -5.58623E+03  5.65652E+03 -8.41578E+03  7.74243E+02 -8.18926E+03 -7.25283E+03 -2.23056E+03 -9.96855E+03
  5.92989E+03 -8.83172E+03  1.00593E+04 -3.11465E+03  9.59566E+03  2.74275E+03  6.05219E+03  6.79193E+03
  1.35250E+03  7.52583E+03 -2.83166E+03  6.82027E+03 -5.19425E+03  3.96410E+03 -5.46686E+03  9.22154E+02
 -2.55116E+03 -5.39586E+02 -2.68616E+03  2.11579E+03 -4.15324E+03  1.62552E+03 -6.98985E+03 -1.26817E+03
 -6.07033E+03 -4.52216E+03 -1.63369E+03 -9.36469E+03  3.51410E+03 -9.61597E+03  7.20050E+03 -5.03422E+03
  8.17528E+03  1.22225E+03  5.38310E+03  6.71841E+03 -9.71561E+02  7.51020E+03 -6.54266E+03  5.50330E+03
