 $NMID ID='MM_0lb_SNR400_19hz_g60_23.RAW', FMTDAT='(8E13.5)'
 TRAMP=1., VOLUME=1. $END
  3.10171E+05  2.76229E+02  3.37335E+05  2.50519E+05  8.42660E+04  3.37516E+05 -1.32625E+05  2.51109E+05
 -1.89574E+05  8.28854E+04 -1.11248E+05 -3.25363E+04  7.63457E+02 -5.06589E+04  5.36569E+04 -1.65438E+01
  3.56308E+04  5.28031E+04 -1.75051E+04  7.53916E+04 -6.07246E+04  6.31046E+04 -8.33224E+04  3.21059E+04
 -7.99347E+04 -1.13660E+04 -5.69934E+04 -5.03097E+04 -1.50637E+04 -6.86777E+04  2.72932E+04 -4.58575E+04
  3.95172E+04  4.23543E+03  1.54299E+04  4.73655E+04 -3.42057E+04  4.68801E+04 -6.63282E+04  7.44816E+02
 -5.28552E+04 -5.65212E+04 -6.42610E+03 -7.55357E+04  3.40549E+04 -5.39240E+04  4.69847E+04 -1.67358E+04
  4.23543E+04  1.08625E+04  3.12844E+04  2.56601E+04  1.52267E+04  2.90075E+04 -5.04939E+03  2.66990E+04
 -2.19986E+04  1.29639E+04 -1.89482E+04 -4.51261E+03  4.24112E+03 -7.42774E+03  2.15768E+04  1.16481E+04
  7.38078E+03  3.42894E+04 -3.07655E+04  3.44744E+04 -6.21973E+04  1.70518E+03 -5.61058E+04 -4.15702E+04
 -1.23427E+04 -6.18596E+04  3.89934E+04 -4.39447E+04  5.65854E+04 -1.94825E+03  3.22541E+04  3.16413E+04
 -6.21545E+03  3.46248E+04 -2.92690E+04  1.51538E+04 -2.89274E+04 -4.87890E+03 -1.53226E+04 -1.04765E+04
 -7.65620E+03 -1.20662E+04 -1.18076E+03 -1.70877E+04  6.69318E+03 -2.29296E+04  1.51857E+04 -1.34018E+04
  1.19117E+04  4.49058E+03 -7.06614E+03  1.36237E+04 -1.98134E+04 -3.34828E+03 -8.32801E+03 -3.13404E+04
  2.22180E+04 -4.17624E+04  4.65447E+04 -1.87994E+04  4.32158E+04  1.86642E+04  1.50476E+04  4.27416E+04
 -1.52963E+04  3.21603E+04 -2.42079E+04  1.40963E+03 -9.27999E+03 -2.74201E+04  2.08601E+04 -3.26077E+04
  3.96373E+04 -8.05142E+03  3.27053E+04  2.30120E+04  1.67951E+04  4.43353E+04 -7.50594E+03  4.74931E+04
 -2.96213E+04  3.11123E+04 -3.94153E+04  9.12419E+03 -3.99672E+04 -1.61044E+04 -2.27842E+04 -3.57840E+04
  7.11183E+03 -3.53978E+04  3.00394E+04 -1.37381E+04  2.78981E+04  1.11386E+04  3.91593E+03  1.79643E+04
 -1.30554E+04  8.24289E+03 -9.62513E+03 -6.89760E+03  5.46689E+03 -1.06677E+04  1.76918E+04  5.96797E+03
  1.28380E+04  2.15613E+04 -6.40213E+03  2.50044E+04 -2.14679E+04  1.03434E+04 -2.63228E+04 -5.95520E+03
 -1.77372E+04 -1.70739E+04 -6.58251E+03 -1.82311E+04  3.66901E+03 -1.65313E+04  1.35307E+04 -1.58076E+04
  2.27259E+04 -1.21017E+04  2.91625E+04  1.21110E+03  2.20729E+04  1.74321E+04  3.65203E+03  3.32235E+04
 -1.67924E+04  2.84967E+04 -2.63532E+04  9.97253E+03 -1.99344E+04 -1.01666E+04 -4.26336E+03 -1.36151E+04
  2.32859E+03 -3.26043E+03 -3.71586E+03  5.96753E+03 -1.37970E+04  5.14757E+03 -1.42598E+04 -5.60803E+03
 -8.95468E+03 -1.69072E+04  5.02643E+03 -2.04281E+04  1.31192E+04 -1.46375E+04  1.48555E+04 -2.13091E+03
  9.71162E+03  1.08605E+04 -8.86439E+02  1.70937E+04 -1.13689E+04  9.31207E+03 -1.61984E+04 -3.83930E+03
 -1.22325E+04 -1.49693E+04 -1.30763E+03 -1.99404E+04  8.87634E+03 -1.64190E+04  1.70365E+04 -7.29062E+03
  1.56087E+04  6.43242E+02  1.12450E+04  3.85354E+03  5.31299E+03  1.16151E+03  8.29860E+03 -1.35115E+03
  1.44432E+04  2.39251E+03  1.55913E+04  1.30910E+04  9.89560E+03  2.60967E+04 -2.96247E+03  2.79070E+04
 -1.72268E+04  2.16047E+04 -2.59173E+04  1.12124E+04 -2.66600E+04 -1.76578E+03 -2.32559E+04 -1.50704E+04
 -1.04761E+04 -2.26263E+04  7.21213E+03 -1.97535E+04  1.75918E+04 -1.14942E+04  1.69075E+04  3.96943E+03
  7.24272E+03  1.19435E+04 -7.60156E+03  1.06914E+04 -1.37468E+04  2.98978E+03 -1.04346E+04 -8.31028E+03
 -1.87478E+02 -1.30606E+04  6.95380E+03 -1.00192E+04  8.51277E+03 -1.53563E+03  1.90488E+03  5.42297E+03
 -6.17892E+03  1.25704E+03 -3.37393E+03 -4.96197E+03  9.73166E+02 -1.05794E+04  7.62019E+03 -1.12770E+04
  1.35110E+04 -5.04863E+03  1.29304E+04  2.65801E+03  1.14437E+04  9.84055E+03  5.94685E+03  1.52751E+04
 -2.31931E+03  1.65131E+04 -1.00388E+04  1.09579E+04 -1.19427E+04  2.94743E+03 -8.45863E+03 -2.63618E+03
 -5.01700E+03 -3.55441E+03 -1.05754E+03  8.93995E+02 -2.66958E+03  2.19500E+03 -4.01938E+03  4.14294E+03
 -8.61410E+03 -5.06146E+02 -9.34602E+03 -7.41386E+03 -3.82393E+03 -1.16508E+04  3.60483E+03 -9.41549E+03
  7.67636E+03 -3.78504E+03  5.52692E+03  1.94010E+03  8.94378E+02  2.91439E+03 -3.25053E+03 -1.53423E+02
 -3.58073E+03 -5.24914E+03 -8.49111E+02 -7.49922E+03  3.99775E+03 -8.27392E+03  1.07458E+04 -4.50269E+03
  1.22586E+04  3.95722E+02  9.43026E+03  6.39768E+03  1.85429E+03  8.66395E+03 -5.34103E+03  8.12352E+03
 -6.85731E+03  2.71085E+03 -3.54034E+03 -1.07780E+03  1.58670E+03 -1.85484E+03  5.57386E+03 -1.13517E+03
  4.64114E+03  3.19875E+03  1.71135E+03  6.57724E+03 -4.73535E+03  6.69678E+03 -8.03702E+03  2.07076E+03
 -5.63752E+03 -3.21637E+03  4.53642E+02 -7.15056E+03  3.82184E+03 -3.40736E+03  3.62748E+03  1.28836E+03
  3.54771E+02  3.63765E+03 -4.17662E+03  5.07392E+03 -4.54486E+03  2.68143E+03 -4.99550E+03 -1.07066E+03
 -2.88556E+03 -6.40617E+03  1.49412E+03 -7.26534E+03  6.23069E+03 -4.39027E+03  6.76947E+03  1.25607E+03
  4.26231E+03  5.37289E+03 -3.70125E+01  7.87889E+03 -5.27491E+03  4.04885E+03 -5.43282E+03 -7.15006E+02
 -6.39209E+03 -5.27411E+03 -1.03550E+03 -4.84265E+03  2.44243E+03 -4.69847E+03  2.99496E+03 -2.99818E+03
  2.88956E+03  6.01410E+02  6.37529E+02  1.42489E+03  3.56127E+02 -2.09612E+02  1.57304E+02 -1.95194E+03
  3.66723E+03 -6.06284E+02  5.25367E+03  5.97595E+02  5.35327E+03  3.36984E+03  5.49484E+03  7.65278E+03
 -1.60750E+03  9.22637E+03 -7.87882E+03  6.36425E+03 -9.85820E+03  9.60961E+02 -8.64068E+03 -2.83083E+03
 -4.44029E+03 -7.00690E+03 -6.42219E+02 -4.55672E+03  2.21383E+03 -2.31666E+03  1.63934E+03 -2.12696E+03
  8.18206E+02 -1.54526E+03  2.11745E+03 -2.60182E+03  3.59855E+03 -1.29104E+03  3.69156E+03  5.86875E+02
  4.42253E+03  1.67744E+03  8.05913E+02  3.50823E+03 -1.07415E+03  2.83625E+03 -4.43168E+03  2.94539E+03
 -5.07318E+03 -1.07848E+03 -1.24264E+03 -3.33305E+03  2.68687E+02 -5.12724E+03  2.58713E+03 -5.73386E+03
  4.81170E+03 -2.91445E+03  6.58669E+03  4.00801E+02  5.12586E+03  4.41151E+03  1.33731E+03  6.02706E+03
 -1.57969E+03  6.21304E+03 -3.76082E+03  1.45138E+03 -1.76133E+03 -4.94187E+02 -8.88699E+02 -1.72159E+02
 -2.99767E+02  5.06751E+02 -1.02738E+03  1.36500E+03 -2.20216E+03  6.61524E+02 -3.93514E+03 -4.24297E+02
 -1.02914E+03 -3.92151E+03  6.48261E+02 -4.37429E+03  2.23161E+03 -4.16472E+03  2.89168E+03 -8.60985E+02
  3.48211E+03  1.92396E+03  1.66972E+03  2.89003E+03 -4.59513E+02  4.60947E+03 -3.21884E+03  2.33597E+03
 -3.72118E+03  1.15180E+03 -3.49409E+03 -2.24088E+03  2.97447E+02 -3.25937E+03  1.64620E+03 -2.31626E+03
  2.90069E+03 -1.30037E+03  1.67556E+03  1.76955E+02  5.46484E+02  1.40764E+03  3.30390E+02  4.47867E+02
  2.12296E+03  7.26538E+02  9.25145E+02  9.16995E+02  1.17541E+03  2.39503E+03  1.70252E+03  1.94036E+03
 -1.07931E+03  3.17991E+03 -1.67333E+03  4.04737E+03 -2.47804E+03  1.63796E+03 -3.96503E+03 -6.11544E+02
 -1.29489E+03 -3.63699E+03  9.26156E+02 -4.23215E+03  1.75852E+03 -2.66618E+03  2.43951E+03 -7.07370E+02
  2.74403E+03  1.28134E+03  2.08494E+02  2.29498E+03 -1.36948E+03  1.08166E+03 -1.55633E+03 -3.58733E+02
 -6.14090E+02 -9.44152E+02  9.51369E+02 -1.46690E+03  1.25788E+03 -1.07709E+03  1.23724E+03  3.49884E+02
  7.07978E+02  1.64942E+02  1.01377E+03 -3.63623E+02 -3.98014E+02  5.52609E+02  1.69602E+03 -4.83193E+02
  4.55092E+02 -4.76819E+02  1.43544E+03  3.28067E+02  1.43919E+02  1.98390E+03 -1.53231E+02  3.06347E+03
 -1.72161E+03  9.82906E+02 -1.28599E+03 -2.23281E+02 -2.23536E+03 -6.20364E+02 -2.41265E+02 -6.60018E+02
  3.22057E+02 -1.03850E+03  1.00328E+03 -3.25713E+02  3.80015E+02  1.54553E+03 -1.16071E+03  1.31876E+03
 -1.64543E+03  1.31585E+03 -1.23940E+03 -1.77320E+03 -7.04456E+02 -2.03064E+03 -2.13261E+02 -1.62447E+03
 -4.67114E+02 -3.10154E+02  9.48153E+02  1.44050E+02  1.41190E+03 -1.23065E+02  5.48442E+02  1.28377E+03
  1.18025E+02  2.74485E+02 -1.12692E+03  3.50404E+02  3.41941E+02 -1.52192E+03  1.81692E+03 -5.12727E+02
  1.42175E+03  4.93280E+02  2.62354E+03  6.55644E+02  9.37258E+02  1.61228E+03 -8.51228E+02  1.25310E+03
 -1.47682E+03  5.61602E+02 -1.00113E+03  1.11755E+02 -4.69016E+02 -8.39181E+02  2.68057E+02 -2.79163E+01
  1.71867E+03 -1.04355E+03  5.65683E+02  9.14535E+02  3.48094E+02  1.05256E+03 -3.65406E+01  1.29897E+03
  2.09006E+02  1.20698E+03 -7.98237E+02  1.61112E+02 -1.99321E+02  3.78983E+02 -7.49679E+02  3.58144E+02
 -2.11653E+02  9.77824E+02 -1.67052E+03  1.44393E+02 -1.43476E+03 -2.88941E+00 -2.49070E+03 -4.91594E+02
 -1.26169E+03 -1.77614E+03  2.93914E+02 -2.69175E+03  3.36146E+02 -2.61212E+03  2.32667E+03 -5.41303E+02
  1.88690E+03 -2.89154E+02  7.34256E+02  9.76210E+02 -3.56217E+02  1.03670E+03 -2.82182E+02  3.83177E+02
 -1.28427E+03  7.66271E+02 -1.42190E+02 -3.27063E+02 -7.56987E+02  5.71939E+02 -8.13010E+02  6.09244E+01
 -9.58695E+02 -1.15941E+02 -6.55466E+02  1.11096E+01  2.82907E+02 -8.87499E+02 -5.37509E+02 -1.20296E+03
  1.30399E+03 -5.19580E+02  6.07351E+02  5.41229E+02  5.79184E+02  9.53044E+02  9.52474E+01  1.46779E+03
 -6.68218E+02  1.47742E+03 -8.64093E+02  1.39265E+03 -1.44441E+03 -1.10239E+03 -3.96998E+02 -1.19570E+03
 -1.03059E+03 -1.36379E+03  2.58577E+02 -1.15975E+03  8.88877E+02 -4.66156E+02  6.10067E+02  1.75650E+02
  3.64567E+02  3.21683E+02  2.94772E+02  1.26599E+02 -6.39334E+02  8.44218E+01  1.03055E+02 -5.41896E+02
  2.49936E+02  5.16974E+02  2.93221E+02  6.28571E+02 -1.98958E+02  1.08873E+03  6.81797E+02  5.96016E+02
 -2.62183E+02  3.63593E+02 -3.41930E+02  3.93028E+02 -9.00539E+02 -6.41398E+02 -2.31688E+02 -6.90770E+02
  4.24398E+02 -5.15218E+02  4.67470E+02 -4.18449E+02  9.52599E+02 -1.15797E+03  2.37930E+02  2.81056E+02
  6.34039E+02  3.59043E+02  9.37344E+01  6.97342E+02 -8.63044E+02  5.98364E+02  2.57992E+01  1.38909E+02
 -3.68805E+02 -1.56161E+02 -4.68082E+02  1.80813E+02 -9.53933E+02 -4.06334E+02 -3.14414E+02 -3.20014E+02
 -1.10123E+03  1.89965E+02 -2.82993E+02 -7.50120E+02  9.07558E+02 -1.16461E+03  5.77613E+02 -4.22658E+02
  2.31956E+02 -6.31466E+02 -4.30114E+02  7.81512E+02 -3.08941E+02  7.04829E+02 -2.53337E+02  2.51513E+02
