 $NMID ID='MM_0lb_SNR400_9hz_g45_2.RAW', FMTDAT='(8E13.5)'
 TRAMP=1., VOLUME=1. $END
  3.10094E+05  1.53193E+02  3.38773E+05  2.50334E+05  8.45385E+04  3.38705E+05 -1.32690E+05  2.51952E+05
 -1.90081E+05  8.36678E+04 -1.12625E+05 -3.15878E+04 -2.42815E+01 -5.08140E+04  5.38454E+04 -3.21991E+01
  3.49144E+04  5.29713E+04 -1.70053E+04  7.52295E+04 -6.13933E+04  6.39618E+04 -8.43566E+04  3.25772E+04
 -8.21315E+04 -1.20754E+04 -5.76983E+04 -5.29939E+04 -1.49388E+04 -7.11097E+04  2.77815E+04 -4.71836E+04
  4.08714E+04  3.88467E+03  1.74385E+04  4.91471E+04 -3.51118E+04  4.80553E+04 -6.76489E+04  3.44596E+02
 -5.46197E+04 -5.80086E+04 -7.50156E+03 -7.87801E+04  3.44232E+04 -5.65244E+04  4.97568E+04 -1.82818E+04
  4.47271E+04  1.15891E+04  3.25813E+04  2.66999E+04  1.63919E+04  3.08848E+04 -5.92344E+03  2.79849E+04
 -2.22124E+04  1.16656E+04 -1.81500E+04 -5.86052E+03  6.92110E+03 -6.89366E+03  2.36879E+04  1.28717E+04
  7.46893E+03  3.71962E+04 -3.46122E+04  3.62997E+04 -6.55936E+04  1.91231E+03 -5.81801E+04 -4.37898E+04
 -1.27263E+04 -6.58407E+04  4.14516E+04 -4.79243E+04  6.10622E+04 -2.39725E+03  3.57542E+04  3.38674E+04
 -5.89018E+03  3.85085E+04 -3.20144E+04  1.81858E+04 -3.30681E+04 -4.16610E+03 -1.87926E+04 -1.17581E+04
 -9.39327E+03 -1.58849E+04 -3.98042E+02 -2.02264E+04  7.76347E+03 -2.39573E+04  1.57502E+04 -1.27259E+04
  1.01447E+04  6.14804E+03 -1.03481E+04  1.23766E+04 -2.37940E+04 -6.28419E+03 -8.10611E+03 -3.74998E+04
  2.55887E+04 -4.63186E+04  5.15973E+04 -2.09278E+04  4.79515E+04  2.14559E+04  1.68727E+04  4.71059E+04
 -1.69830E+04  3.55950E+04 -2.75403E+04  2.24233E+03 -1.08893E+04 -2.94875E+04  2.11230E+04 -3.64752E+04
  4.38071E+04 -1.09022E+04  3.93324E+04  2.47281E+04  2.03151E+04  5.08268E+04 -8.80456E+03  5.60094E+04
 -3.50102E+04  3.77817E+04 -4.71730E+04  1.09889E+04 -4.73239E+04 -1.74359E+04 -2.58752E+04 -4.20081E+04
  7.95786E+03 -4.18650E+04  3.45159E+04 -1.68075E+04  3.17097E+04  1.16203E+04  4.19070E+03  2.09226E+04
 -1.35152E+04  9.43847E+03 -1.10975E+04 -6.62265E+03  5.70899E+03 -1.16154E+04  1.88882E+04  5.80200E+03
  1.44030E+04  2.29346E+04 -5.27905E+03  2.69386E+04 -2.30397E+04  1.35802E+04 -3.13216E+04 -3.07866E+03
 -2.50412E+04 -1.87795E+04 -1.10035E+04 -2.45916E+04  4.11619E+03 -2.48705E+04  1.93446E+04 -2.29494E+04
  3.12393E+04 -1.32701E+04  3.73530E+04  5.28855E+03  2.60706E+04  2.37835E+04  4.38257E+03  4.04810E+04
 -1.94830E+04  3.29166E+04 -3.05352E+04  1.13933E+04 -2.25428E+04 -9.88484E+03 -4.59265E+03 -1.37912E+04
  2.02421E+03 -1.55337E+03 -7.51278E+03  8.47510E+03 -2.00049E+04  4.37424E+03 -2.00576E+04 -9.68938E+03
 -1.18810E+04 -2.28167E+04  6.63020E+03 -2.77393E+04  1.84107E+04 -1.93344E+04  2.28229E+04 -1.83490E+03
  1.45992E+04  1.62346E+04 -1.26348E+03  2.24285E+04 -1.70867E+04  1.31462E+04 -2.33815E+04 -5.28216E+03
 -1.66254E+04 -2.00096E+04 -2.03706E+03 -2.78001E+04  1.32754E+04 -2.25959E+04  2.27268E+04 -1.16429E+04
  2.18070E+04  1.92086E+02  1.56510E+04  5.03648E+03  8.24608E+03  1.10021E+03  1.24963E+04 -1.83728E+03
  2.20223E+04  2.66081E+03  2.53294E+04  1.86274E+04  1.71350E+04  3.69755E+04 -2.28530E+03  4.36490E+04
 -2.46484E+04  3.62474E+04 -4.10802E+04  1.85568E+04 -4.42106E+04 -3.24066E+03 -3.56009E+04 -2.54204E+04
 -1.44114E+04 -3.59874E+04  1.30151E+04 -3.20607E+04  2.78937E+04 -1.49181E+04  2.37530E+04  8.06059E+03
  7.95045E+03  1.90049E+04 -1.04005E+04  1.52743E+04 -1.95315E+04  2.59105E+03 -1.56877E+04 -1.21575E+04
 -2.07781E+02 -1.86527E+04  8.66508E+03 -1.36118E+04  1.25988E+04 -8.48722E+02  3.05798E+03  8.77291E+03
 -7.94002E+03  3.18526E+03 -9.32962E+03 -6.01253E+03 -1.15955E+03 -1.80050E+04  1.17119E+04 -1.92535E+04
  2.25056E+04 -1.03965E+04  2.53307E+04  2.95695E+03  2.25368E+04  1.78744E+04  1.03899E+04  2.90620E+04
 -5.01106E+03  3.12060E+04 -1.96356E+04  1.85056E+04 -2.19507E+04  4.42610E+03 -1.55966E+04 -4.84868E+03
 -6.07251E+03 -6.52123E+03  4.25425E+02  2.21265E+02 -3.55540E+03  3.55743E+03 -7.63987E+03  5.01789E+03
 -1.40739E+04 -7.50186E+02 -1.39152E+04 -1.23518E+04 -6.24615E+03 -1.93462E+04  6.52221E+03 -1.45643E+04
  1.32547E+04 -6.51777E+03  8.89132E+03  4.10662E+03 -2.34503E+02  6.22829E+03 -7.61915E+03 -6.36276E+02
 -7.33147E+03 -9.56587E+03 -8.45137E+02 -1.55702E+04  9.69840E+03 -1.63370E+04  1.96225E+04 -8.85654E+03
  2.29745E+04  2.67979E+03  1.66439E+04  1.38723E+04  2.50899E+03  1.88440E+04 -9.67702E+03  1.49529E+04
 -1.23040E+04  4.16306E+03 -5.66550E+03 -3.42687E+03  2.06046E+03 -4.80593E+03  7.51393E+03 -1.11761E+03
  7.53378E+03  7.15654E+03  1.34885E+03  1.21835E+04 -8.33229E+03  1.11252E+04 -1.59767E+04  2.66676E+03
 -1.03835E+04 -7.83432E+03 -3.35844E+02 -1.26769E+04  8.29670E+03 -6.52129E+03  8.92240E+03  2.92091E+03
  2.45540E+03  9.46819E+03 -7.70449E+03  1.06251E+04 -1.39421E+04  5.19442E+03 -1.34871E+04 -5.07774E+03
 -8.43670E+03 -1.51116E+04  3.37954E+03 -1.74482E+04  1.50191E+04 -1.01143E+04  1.64038E+04  2.83113E+03
  9.41281E+03  1.30554E+04 -1.32839E+03  1.61362E+04 -1.15502E+04  9.05785E+03 -1.25420E+04 -1.11360E+03
 -9.50409E+03 -9.68179E+03 -1.84686E+03 -1.22950E+04  6.18755E+03 -1.00356E+04  8.00912E+03 -3.82441E+03
  4.98109E+03  1.80558E+03 -1.25077E+03  2.30363E+03 -1.62239E+03 -3.25013E+03  2.21515E+03 -7.35493E+03
  1.11885E+04 -4.14230E+03  1.53316E+04  2.30286E+03  1.56345E+04  1.00404E+04  9.97275E+03  1.94437E+04
 -4.69239E+03  2.31517E+04 -2.02263E+04  1.72451E+04 -2.49821E+04  3.29551E+03 -1.93046E+04 -8.42712E+03
 -9.80730E+03 -1.59295E+04 -7.99395E+01 -1.39221E+04  3.77277E+03 -8.14799E+03  4.77442E+03 -5.29483E+03
  3.19325E+03 -2.84843E+03  3.81123E+03 -4.12038E+03  5.90027E+03 -4.26164E+03  8.45782E+03 -1.60429E+03
  1.01417E+04  2.77211E+03  5.18404E+03  9.16526E+03 -1.68109E+03  1.07488E+04 -1.13779E+04  7.43353E+03
 -1.37896E+04 -1.38081E+03 -8.99916E+03 -9.56476E+03 -1.81120E+03 -1.55614E+04  8.44098E+03 -1.49281E+04
  1.63963E+04 -9.40922E+03  1.84830E+04  2.43635E+03  1.27670E+04  1.28682E+04  1.49069E+03  1.83326E+04
 -7.02550E+03  1.44111E+04 -1.04348E+04  4.86108E+03 -7.05451E+03 -2.07696E+03 -2.68033E+03 -2.03143E+03
 -1.66499E+03 -3.36780E+02 -2.86691E+03  2.83808E+03 -6.61399E+03  2.10520E+03 -1.02718E+04 -1.54242E+03
 -6.84235E+03 -9.81164E+03  1.66999E+02 -1.44123E+04  9.08701E+03 -1.30195E+04  1.40202E+04 -4.74681E+03
  1.40995E+04  7.02762E+03  6.24914E+03  1.20275E+04 -1.66990E+03  1.44196E+04 -1.02824E+04  8.71762E+03
 -1.39849E+04  6.29289E+02 -1.00069E+04 -9.18772E+03 -8.25239E+02 -1.19009E+04  6.25847E+03 -8.94995E+03
  8.94795E+03 -3.23115E+03  6.65414E+03  2.20570E+03  2.54312E+03  4.44203E+03  9.97623E+02  1.89099E+03
  3.11871E+03  1.11077E+03  2.58488E+03  1.85888E+03  3.74378E+03  4.93471E+03  3.90356E+03  7.39441E+03
 -3.00641E+03  1.20607E+04 -1.08627E+04  1.17946E+04 -1.51069E+04  3.88365E+03 -1.55863E+04 -6.29116E+03
 -6.17785E+03 -1.50123E+04  2.22182E+03 -1.63594E+04  8.75374E+03 -9.81977E+03  1.20261E+04 -2.61312E+03
  8.29713E+03  5.43818E+03  2.37355E+03  8.25423E+03 -4.42504E+03  6.07811E+03 -6.53251E+03 -1.29510E+03
 -3.17161E+03 -6.80068E+03  3.02753E+03 -7.16624E+03  6.03974E+03 -2.81600E+03  5.52410E+03  1.74583E+03
  3.49418E+03  2.97371E+03  1.85676E+03  2.16060E+03  1.17449E+00  2.16367E+03  1.38018E+03 -7.30231E+01
  2.57411E+03 -1.16442E+03  5.61715E+03  2.36896E+03  3.91972E+03  6.97193E+03 -7.70761E+02  1.00007E+04
 -7.77502E+03  7.30241E+03 -9.71409E+03  1.98101E+03 -8.24448E+03 -2.76410E+03 -2.54502E+03 -6.45834E+03
  1.50195E+03 -5.62785E+03  3.84245E+03 -1.63362E+03  3.40577E+03  3.16299E+03 -1.74325E+03  5.17471E+03
 -6.58162E+03  3.24824E+03 -6.92121E+03 -3.10714E+03 -3.59298E+03 -8.26032E+03  1.63458E+03 -8.78154E+03
  4.20491E+03 -4.58504E+03  5.93452E+03 -1.54508E+03  5.01482E+03  1.64702E+03  1.38049E+02  3.72357E+03
 -2.75243E+03  1.35794E+03 -3.38522E+03 -3.41677E+03  1.31582E+03 -6.46133E+03  7.11775E+03 -4.90144E+03
  9.18725E+03  8.77038E+02  9.41326E+03  5.92706E+03  2.29382E+03  9.18399E+03 -4.51806E+03  9.62082E+03
 -8.35327E+03  4.12000E+03 -8.48594E+03 -1.20295E+03 -4.38450E+03 -6.72027E+03  1.90705E+03 -5.89026E+03
  5.92732E+03 -2.27882E+03  5.29093E+03  2.29475E+03  2.37224E+03  5.51661E+03 -1.30906E+03  4.57762E+03
 -3.01092E+03  3.11383E+03 -3.18701E+03  6.02756E+02 -1.02058E+03  1.11095E+03 -1.53467E+03  1.87722E+03
 -2.64831E+03  2.87944E+03 -6.30387E+03  3.08077E+03 -9.15699E+03  4.95087E+02 -1.01509E+04 -6.07076E+03
 -6.26100E+03 -1.31140E+04  2.84953E+03 -1.47650E+04  8.47344E+03 -1.10078E+04  1.43157E+04 -5.00758E+03
  1.33427E+04  2.81243E+03  8.17948E+03  9.36111E+03  4.18713E+02  9.65601E+03 -4.05276E+03  7.03008E+03
 -5.55331E+03  3.35588E+03 -3.46902E+03 -1.52080E+03 -9.98069E+02 -6.55733E+02 -4.91853E+02  8.36587E+02
 -9.80893E+02  7.97743E+02 -2.79019E+03 -7.69767E+02 -5.37793E+02 -2.30476E+03  9.55193E+02 -2.99886E+03
  3.99048E+03 -4.10109E+03  6.44347E+03  8.41009E+02  6.96626E+03  5.21323E+03  2.05996E+03  1.02243E+04
 -4.20104E+03  1.20349E+04 -1.07633E+04  6.94259E+03 -1.26504E+04 -1.01778E+03 -1.03959E+04 -7.54412E+03
 -3.65079E+03 -1.07621E+04  2.80309E+03 -9.20633E+03  7.23913E+03 -5.28247E+03  6.75265E+03  7.81259E+01
  3.53179E+03  2.71712E+03  1.97557E+02  2.40131E+03 -1.84475E+03 -4.58315E+02 -8.31027E+01 -2.57695E+03
  2.91685E+03 -1.62994E+03  3.56490E+03  8.61320E+02  1.65670E+03  3.88812E+03 -2.86480E+02  5.73004E+03
 -4.19469E+03  4.86200E+03 -6.28146E+03  1.22292E+02 -6.32993E+03 -5.71157E+03 -2.35591E+03 -8.57247E+03
  5.17625E+03 -7.38649E+03  7.35038E+03 -2.36856E+03  8.10521E+03  1.96968E+03  4.66538E+03  6.10407E+03
  1.45072E+03  6.60662E+03 -2.71633E+03  4.89005E+03 -4.10645E+03  2.49122E+03 -3.34359E+03  1.22579E+02
 -2.42953E+03 -3.86181E+02 -2.57857E+03  2.15358E+02 -4.27128E+03  1.46416E+03 -4.54277E+03 -5.19071E+02
 -4.34301E+03 -3.40041E+03 -1.60632E+03 -7.11778E+03  2.61800E+03 -6.87905E+03  6.50249E+03 -2.53960E+03
  5.92559E+03  8.93261E+02  3.32732E+03  4.70789E+03 -6.43117E+02  6.53853E+03 -5.50140E+03  4.16772E+03
