 $NMID ID='MM_0lb_SNR400_16hz_g50_22.RAW', FMTDAT='(8E13.5)'
 TRAMP=1., VOLUME=1. $END
  3.09468E+05  6.03396E+02  3.37797E+05  2.50582E+05  8.46085E+04  3.37991E+05 -1.32281E+05  2.50964E+05
 -1.89684E+05  8.26666E+04 -1.11511E+05 -3.25694E+04  1.33383E+03 -5.07258E+04  5.35935E+04  2.47222E+02
  3.59563E+04  5.30589E+04 -1.71405E+04  7.50855E+04 -6.01398E+04  6.34834E+04 -8.32351E+04  3.19177E+04
 -8.02944E+04 -1.09861E+04 -5.69066E+04 -5.06256E+04 -1.46671E+04 -6.89705E+04  2.71497E+04 -4.54790E+04
  4.00068E+04  3.88888E+03  1.61107E+04  4.74954E+04 -3.39895E+04  4.71797E+04 -6.62485E+04 -3.13803E+02
 -5.31948E+04 -5.65667E+04 -6.76479E+03 -7.58862E+04  3.32225E+04 -5.41777E+04  4.70861E+04 -1.69376E+04
  4.29824E+04  1.08816E+04  3.13709E+04  2.50566E+04  1.57462E+04  2.91994E+04 -4.99715E+03  2.65865E+04
 -2.19509E+04  1.24177E+04 -1.89138E+04 -5.04347E+03  4.91865E+03 -7.84349E+03  2.21192E+04  1.17072E+04
  7.05491E+03  3.44676E+04 -3.15751E+04  3.47394E+04 -6.24961E+04  1.84332E+03 -5.58620E+04 -4.21337E+04
 -1.31243E+04 -6.22003E+04  3.89116E+04 -4.48251E+04  5.69831E+04 -2.06544E+03  3.27629E+04  3.16658E+04
 -6.28840E+03  3.54543E+04 -3.00636E+04  1.47136E+04 -2.92874E+04 -5.12888E+03 -1.56269E+04 -1.07281E+04
 -8.37818E+03 -1.23446E+04 -8.62281E+02 -1.69564E+04  6.88540E+03 -2.30710E+04  1.50076E+04 -1.32938E+04
  1.18336E+04  4.45988E+03 -7.28788E+03  1.27407E+04 -2.06811E+04 -3.55056E+03 -8.71004E+03 -3.24829E+04
  2.13593E+04 -4.19854E+04  4.63356E+04 -1.90957E+04  4.35261E+04  1.90464E+04  1.49437E+04  4.35243E+04
 -1.56445E+04  3.20393E+04 -2.50665E+04  1.21207E+03 -9.16997E+03 -2.75230E+04  2.07542E+04 -3.30952E+04
  3.99856E+04 -8.64589E+03  3.41598E+04  2.39790E+04  1.71749E+04  4.50008E+04 -7.66367E+03  4.81061E+04
 -3.11131E+04  3.24206E+04 -4.05800E+04  9.10924E+03 -4.10433E+04 -1.61801E+04 -2.22051E+04 -3.62995E+04
  6.72078E+03 -3.66321E+04  3.11834E+04 -1.34292E+04  2.86765E+04  1.05055E+04  3.63758E+03  1.86311E+04
 -1.31736E+04  8.13734E+03 -9.86813E+03 -8.04605E+03  5.75755E+03 -1.03538E+04  1.71003E+04  6.61248E+03
  1.24358E+04  2.17291E+04 -6.46368E+03  2.42768E+04 -2.22412E+04  1.06319E+04 -2.68503E+04 -5.35018E+03
 -1.94313E+04 -1.68736E+04 -6.63714E+03 -1.95070E+04  4.48707E+03 -1.74981E+04  1.47651E+04 -1.67644E+04
  2.40856E+04 -1.22214E+04  3.08904E+04  2.36468E+03  2.27227E+04  1.79935E+04  4.11159E+03  3.43946E+04
 -1.74131E+04  2.94057E+04 -2.72791E+04  9.63331E+03 -2.06320E+04 -1.04121E+04 -4.20325E+03 -1.43525E+04
  1.92980E+03 -2.55614E+03 -3.82261E+03  5.62109E+03 -1.42792E+04  5.46354E+03 -1.53555E+04 -6.45975E+03
 -9.27693E+03 -1.71868E+04  5.37468E+03 -2.16409E+04  1.37244E+04 -1.57887E+04  1.58464E+04 -1.68979E+03
  1.05535E+04  1.22661E+04 -6.95974E+02  1.79446E+04 -1.23658E+04  9.98536E+03 -1.81055E+04 -3.98205E+03
 -1.33764E+04 -1.55389E+04 -1.74444E+03 -2.10044E+04  1.00762E+04 -1.76115E+04  1.78058E+04 -8.16463E+03
  1.63397E+04 -2.90336E+02  1.22720E+04  4.13336E+03  5.53137E+03  8.33128E+02  8.77342E+03 -1.72377E+03
  1.57376E+04  3.14669E+03  1.82738E+04  1.44636E+04  1.08870E+04  2.76610E+04 -2.97510E+03  3.07616E+04
 -1.77987E+04  2.40761E+04 -2.80205E+04  1.22367E+04 -3.03975E+04 -2.21721E+03 -2.48229E+04 -1.76585E+04
 -1.11025E+04 -2.46281E+04  9.04538E+03 -2.27859E+04  1.95547E+04 -1.21269E+04  1.80789E+04  4.43711E+03
  6.29275E+03  1.25200E+04 -7.79146E+03  1.18560E+04 -1.51297E+04  3.23566E+03 -1.20491E+04 -9.56287E+03
  2.36133E+02 -1.43309E+04  7.13320E+03 -1.03972E+04  9.36934E+03 -8.96806E+02  2.02633E+03  6.22873E+03
 -6.15244E+03  1.57139E+03 -4.78754E+03 -5.21092E+03 -9.81739E+01 -1.20636E+04  8.47728E+03 -1.23971E+04
  1.51370E+04 -5.95221E+03  1.52000E+04  2.50872E+03  1.36466E+04  1.19816E+04  6.37459E+03  1.75384E+04
 -2.47117E+03  1.98676E+04 -1.20263E+04  1.21906E+04 -1.32679E+04  3.10747E+03 -1.04580E+04 -2.98041E+03
 -5.23616E+03 -4.11678E+03 -5.23741E+02  1.16861E+03 -2.10390E+03  2.26866E+03 -4.55827E+03  3.92201E+03
 -9.66779E+03 -5.96591E+02 -1.01278E+04 -8.02623E+03 -4.49694E+03 -1.36529E+04  4.46829E+03 -9.84382E+03
  8.54112E+03 -4.86308E+03  5.75428E+03  2.81665E+03  4.53511E+01  3.33108E+03 -4.70480E+03 -2.77913E+01
 -3.86490E+03 -6.17425E+03 -7.44237E+02 -9.23684E+03  4.72006E+03 -9.26270E+03  1.20767E+04 -4.65250E+03
  1.45106E+04  8.85437E+02  1.06084E+04  8.14590E+03  1.18160E+03  1.13793E+04 -5.84971E+03  1.04971E+04
 -7.74456E+03  3.02190E+03 -4.39560E+03 -1.62182E+03  1.16908E+03 -2.08515E+03  5.81666E+03 -5.09292E+02
  5.15964E+03  3.96437E+03  1.71417E+03  7.87144E+03 -5.01684E+03  8.00021E+03 -9.64022E+03  1.87607E+03
 -5.93192E+03 -4.86202E+03  3.20513E+02 -7.95572E+03  4.65647E+03 -3.87473E+03  4.35041E+03  1.57994E+03
  8.69422E+02  5.27422E+03 -4.98956E+03  6.25639E+03 -6.79857E+03  2.84114E+03 -6.71590E+03 -1.55662E+03
 -3.83698E+03 -7.91004E+03  1.89463E+03 -9.25629E+03  7.38494E+03 -5.59598E+03  8.71483E+03  1.57301E+03
  5.39481E+03  6.83376E+03 -5.44347E+02  9.24922E+03 -6.08137E+03  5.16163E+03 -6.81198E+03 -4.56821E+01
 -6.77115E+03 -6.43675E+03 -1.30040E+03 -6.51347E+03  3.02696E+03 -5.57870E+03  4.40176E+03 -3.71371E+03
  3.31394E+03  7.51283E+02 -6.64567E+02  1.02887E+03 -4.62862E+02 -6.45256E+02  3.26989E+02 -2.75789E+03
  5.42925E+03 -1.39798E+03  7.91406E+03  1.30788E+03  7.79228E+03  4.48382E+03  5.91707E+03  1.01130E+04
 -2.36576E+03  1.19249E+04 -1.02423E+04  8.70574E+03 -1.35354E+04  1.94894E+03 -1.04026E+04 -3.79909E+03
 -5.51806E+03 -8.82192E+03 -1.16483E+03 -7.11808E+03  2.50150E+03 -2.82405E+03  2.58320E+03 -2.75322E+03
  1.75569E+03 -1.50806E+03  1.89304E+03 -2.58000E+03  3.80193E+03 -1.51470E+03  4.86109E+03 -1.90387E+02
  5.84007E+03  1.88856E+03  2.03363E+03  4.43887E+03 -1.79878E+03  4.31432E+03 -5.71870E+03  3.90693E+03
 -6.97775E+03 -1.26643E+03 -3.72889E+03 -4.25050E+03  8.06363E+01 -6.63638E+03  4.76123E+03 -7.45854E+03
  7.12927E+03 -4.70054E+03  8.61953E+03  9.25757E+02  6.61107E+03  5.95245E+03  1.68869E+03  7.95077E+03
 -2.81251E+03  7.37117E+03 -5.03355E+03  2.50516E+03 -3.04046E+03 -9.34756E+02 -6.78278E+02 -7.23812E+02
 -3.99108E+02 -3.54455E+02 -7.14152E+02  2.23847E+03 -3.70186E+03  1.57886E+03 -4.89600E+03 -1.14599E+03
 -2.49866E+03 -4.93413E+03  1.19567E+03 -6.48278E+03  3.80179E+03 -5.67018E+03  5.26094E+03 -1.76320E+03
  5.53719E+03  3.19547E+03  3.23872E+03  4.87003E+03 -1.42083E+03  5.79146E+03 -4.16723E+03  3.71227E+03
 -5.25494E+03  9.05553E+02 -4.84350E+03 -3.49906E+03 -4.69846E+02 -4.34160E+03  2.54205E+03 -3.76985E+03
  4.02744E+03 -1.91325E+03  2.30702E+03  1.00154E+03  1.19272E+03  1.79181E+03  5.19214E+02  1.55394E+03
  2.15062E+03  1.61456E+02  1.69341E+03  9.39134E+02  1.80248E+03  3.20807E+03  1.90227E+03  2.87570E+03
 -1.46657E+03  4.51320E+03 -3.81604E+03  5.38543E+03 -4.54354E+03  1.84069E+03 -6.08322E+03 -1.73091E+03
 -2.82501E+03 -5.19278E+03  1.15443E+03 -6.86791E+03  3.07082E+03 -3.60907E+03  4.75732E+03 -1.29498E+03
  3.55983E+03  2.66364E+03  4.80774E+02  3.04075E+03 -1.41380E+03  1.56927E+03 -1.59260E+03 -5.37436E+02
 -6.04375E+02 -1.96117E+03  1.63555E+03 -2.65900E+03  2.33641E+03 -1.56454E+03  2.69800E+03  3.76277E+02
  8.15773E+02  2.14885E+02  5.76246E+02  5.20889E+01 -3.44513E+02  9.28523E+02  1.66478E+03 -9.23911E+02
  1.30777E+02  1.83003E+02  2.69063E+03  1.11911E+03  4.26085E+02  3.42739E+03 -1.25963E+03  4.26774E+03
 -2.47319E+03  1.69906E+03 -3.64193E+03  5.66951E+02 -3.22662E+03 -1.06969E+03 -5.37626E+02 -1.25751E+03
  5.51714E+02 -1.67329E+03  1.50666E+03 -8.12292E+02  1.09576E+03  1.43710E+03 -1.12905E+03  1.68338E+03
 -3.12429E+03  1.03121E+03 -2.26038E+03 -1.50705E+03 -1.28693E+03 -3.10218E+03  7.81632E+01 -3.16712E+03
  1.46277E+03 -1.17358E+03  1.49391E+03  2.17021E+01  1.88675E+03  1.12114E+02  3.95679E+02  1.16107E+03
 -6.70483E+02  7.02372E+02 -1.04081E+03 -4.73437E+02  4.28426E+02 -1.90314E+03  2.29386E+03 -1.88753E+03
  2.43063E+03  3.32167E+02  3.62537E+03  1.61109E+03  1.36299E+03  3.05124E+03 -8.02610E+02  2.33528E+03
 -2.13773E+03  8.98747E+02 -2.69245E+03 -8.08262E+02 -1.52055E+03 -2.14741E+03  4.03416E+02 -1.46058E+03
  2.37159E+03 -1.28408E+03  1.50111E+03  1.05497E+03  2.41444E+02  1.40461E+03  6.27178E+02  1.70861E+03
 -1.09172E+03  9.78984E+02 -8.46995E+02  1.01560E+03 -5.89841E+02  7.46917E+02 -7.07918E+02  7.97245E+02
 -5.65851E+02  1.65942E+03 -3.20187E+03  3.12004E+02 -2.55540E+03 -5.79317E+01 -3.42188E+03 -1.44954E+03
 -9.18557E+02 -4.13300E+03  8.58240E+02 -5.47659E+03  1.16945E+03 -3.48841E+03  4.26827E+03 -1.36940E+03
  4.15602E+03  5.28555E+02  2.21178E+03  2.73957E+03 -1.78083E+02  2.98964E+03 -1.33142E+03  1.69515E+03
 -1.59665E+03  1.76925E+03 -1.06612E+03  1.23615E+02 -7.51894E+02  4.36875E+02 -1.03675E+03 -2.97803E+01
 -8.22130E+02 -7.89395E+02 -8.97879E+02 -3.48084E+02 -3.37387E+01 -1.29213E+03 -2.32654E+02 -1.19233E+03
  1.54049E+03 -8.91841E+02  4.57595E+02  2.79866E+02  1.98662E+03  1.14398E+03  4.26034E+01  2.49192E+03
 -1.36611E+03  3.80725E+03 -2.62265E+03  2.59897E+03 -2.75938E+03 -4.26828E+02 -1.88471E+03 -1.94534E+03
 -1.12010E+03 -2.70066E+03  4.43012E+02 -2.62618E+03  1.16209E+03 -1.02001E+03  1.28557E+03 -2.18676E+02
  1.15263E+03  3.76652E+02 -2.85120E+02  9.46179E+02 -5.41074E+02 -5.39141E+02 -2.43931E+02 -4.88399E+02
  5.49135E+02  4.37924E+02  1.27400E+02  5.31174E+02  6.36392E+02  8.73127E+02  5.54068E+02  9.09154E+02
 -9.28916E+02  1.63291E+03 -1.32649E+03  2.43949E+02 -1.01226E+03 -3.27941E+02 -1.72747E+02 -1.64196E+03
  1.04514E+03 -1.69108E+03  8.56357E+02 -5.36986E+01  1.53300E+03 -8.31135E+01  1.18702E+03  9.76861E+02
  9.01071E+02  1.14175E+03 -9.73258E+02  9.27491E+02 -1.05663E+03  6.42312E+02 -4.59875E+02  7.70949E+01
  1.57774E+02 -9.95686E+01 -8.07618E+02  2.82599E+02 -3.08228E+02 -1.78931E+01 -8.46798E+02  2.79157E+02
 -1.46574E+03  8.83456E+01 -7.00623E+02 -1.91760E+03  4.96750E+02 -2.59193E+03  1.61994E+03 -3.50432E+02
  1.60107E+03  2.06839E+00  9.92970E+01  6.51336E+02 -3.01840E+02  1.17332E+03 -8.30195E+02  1.37857E+03
