 $NMID ID='MM_0lb_SNR400_16hz_g60_44.RAW', FMTDAT='(8E13.5)'
 TRAMP=1., VOLUME=1. $END
  3.09234E+05  4.21570E+02  3.38182E+05  2.50721E+05  8.50389E+04  3.37705E+05 -1.32363E+05  2.51299E+05
 -1.90852E+05  8.29867E+04 -1.11248E+05 -3.24018E+04  8.94708E+02 -5.04270E+04  5.36964E+04 -4.08012E+02
  3.52799E+04  5.26152E+04 -1.71467E+04  7.55048E+04 -6.08960E+04  6.39792E+04 -8.43189E+04  3.17717E+04
 -8.12895E+04 -1.10798E+04 -5.73927E+04 -5.11095E+04 -1.54618E+04 -7.00156E+04  2.70263E+04 -4.55185E+04
  4.04203E+04  3.84031E+03  1.60984E+04  4.77771E+04 -3.44089E+04  4.74078E+04 -6.72805E+04  4.13829E+02
 -5.38018E+04 -5.71142E+04 -6.80831E+03 -7.64467E+04  3.35396E+04 -5.55654E+04  4.84683E+04 -1.73829E+04
  4.37763E+04  1.12493E+04  3.19800E+04  2.51589E+04  1.57093E+04  3.00544E+04 -4.72537E+03  2.69063E+04
 -2.18291E+04  1.21882E+04 -1.83359E+04 -5.05863E+03  5.53762E+03 -7.42430E+03  2.28302E+04  1.26654E+04
  7.59233E+03  3.52228E+04 -3.22937E+04  3.56413E+04 -6.37658E+04  2.30003E+03 -5.70402E+04 -4.31156E+04
 -1.28012E+04 -6.31363E+04  3.99390E+04 -4.54667E+04  5.82067E+04 -2.24573E+03  3.41070E+04  3.23290E+04
 -5.90723E+03  3.63797E+04 -2.97318E+04  1.60624E+04 -3.04009E+04 -4.68266E+03 -1.65571E+04 -1.11091E+04
 -8.76461E+03 -1.25589E+04 -4.81141E+02 -1.80969E+04  7.44623E+03 -2.32792E+04  1.52220E+04 -1.35782E+04
  1.16992E+04  5.21513E+03 -7.78262E+03  1.26450E+04 -2.05027E+04 -4.74002E+03 -7.92646E+03 -3.36298E+04
  2.27743E+04 -4.34382E+04  4.83843E+04 -1.92912E+04  4.50930E+04  1.93829E+04  1.59593E+04  4.42186E+04
 -1.59917E+04  3.33605E+04 -2.52040E+04  1.27796E+03 -9.62631E+03 -2.72690E+04  2.06310E+04 -3.35181E+04
  4.16300E+04 -9.30927E+03  3.51100E+04  2.38783E+04  1.83179E+04  4.64378E+04 -8.22475E+03  5.00530E+04
 -3.14986E+04  3.37945E+04 -4.20231E+04  9.76558E+03 -4.27134E+04 -1.62645E+04 -2.38508E+04 -3.80791E+04
  7.19666E+03 -3.80223E+04  3.07681E+04 -1.52791E+04  2.87441E+04  1.06370E+04  4.37910E+03  1.94359E+04
 -1.30209E+04  8.46844E+03 -9.90713E+03 -7.78802E+03  5.72172E+03 -1.04024E+04  1.75654E+04  5.32989E+03
  1.30461E+04  2.20377E+04 -5.91718E+03  2.43384E+04 -2.25829E+04  1.19043E+04 -2.77553E+04 -4.82895E+03
 -2.05860E+04 -1.77410E+04 -8.07511E+03 -2.04742E+04  3.77085E+03 -1.95169E+04  1.56802E+04 -1.77398E+04
  2.51017E+04 -1.24876E+04  3.22595E+04  3.07151E+03  2.35718E+04  1.93877E+04  3.79724E+03  3.63293E+04
 -1.78933E+04  2.97264E+04 -2.76338E+04  1.05383E+04 -2.08812E+04 -1.03032E+04 -5.22164E+03 -1.39385E+04
  1.66065E+03 -2.86414E+03 -4.79899E+03  7.18311E+03 -1.58214E+04  5.27729E+03 -1.64170E+04 -6.81219E+03
 -1.03389E+04 -1.82892E+04  5.07533E+03 -2.30281E+04  1.57793E+04 -1.61853E+04  1.78509E+04 -1.44439E+03
  1.16171E+04  1.27645E+04 -4.98906E+02  1.88319E+04 -1.26035E+04  1.05528E+04 -1.90611E+04 -3.54152E+03
 -1.35151E+04 -1.71567E+04 -1.80320E+03 -2.25444E+04  1.03462E+04 -1.84351E+04  1.88509E+04 -9.26530E+03
  1.71963E+04  1.67457E+02  1.27556E+04  4.54586E+03  6.44431E+03  1.14915E+03  9.49466E+03 -1.86187E+03
  1.73584E+04  2.75997E+03  1.92561E+04  1.50669E+04  1.19892E+04  2.92366E+04 -3.36990E+03  3.31107E+04
 -1.93845E+04  2.63253E+04 -3.09448E+04  1.34446E+04 -3.22406E+04 -3.02244E+03 -2.64766E+04 -1.89865E+04
 -1.15352E+04 -2.67024E+04  8.86031E+03 -2.37939E+04  2.06677E+04 -1.24893E+04  1.84234E+04  5.28409E+03
  6.77461E+03  1.38951E+04 -8.87681E+03  1.26923E+04 -1.60268E+04  2.14090E+03 -1.16687E+04 -9.30506E+03
 -2.34623E+02 -1.51680E+04  7.59323E+03 -1.12645E+04  9.80766E+03 -8.71722E+02  2.70841E+03  6.34741E+03
 -6.71801E+03  2.43454E+03 -5.26385E+03 -5.52488E+03 -3.41497E+02 -1.30044E+04  8.92436E+03 -1.34639E+04
  1.61881E+04 -6.58543E+03  1.65048E+04  3.41868E+03  1.52881E+04  1.24261E+04  6.80273E+03  1.93502E+04
 -3.12583E+03  2.08276E+04 -1.32728E+04  1.35112E+04 -1.49886E+04  3.29245E+03 -1.07711E+04 -3.14283E+03
 -5.03004E+03 -4.27863E+03 -6.09238E+02  1.57613E+03 -2.02446E+03  2.62555E+03 -5.30464E+03  4.29493E+03
 -1.02898E+04 -3.79211E+02 -1.10343E+04 -8.14513E+03 -4.40496E+03 -1.37199E+04  4.32050E+03 -1.08762E+04
  9.15655E+03 -4.21385E+03  6.15472E+03  2.87958E+03 -1.32825E+02  3.95269E+03 -4.73622E+03 -8.58819E+00
 -4.99104E+03 -6.86981E+03 -7.67125E+02 -1.02110E+04  5.38026E+03 -1.03592E+04  1.28247E+04 -5.64339E+03
  1.59586E+04  1.55676E+03  1.16277E+04  8.92772E+03  2.10285E+03  1.19890E+04 -6.78880E+03  1.02915E+04
 -8.29050E+03  2.93804E+03 -4.68292E+03 -2.32815E+03  2.05445E+03 -2.59057E+03  6.26845E+03 -1.00221E+03
  4.95602E+03  4.03425E+03  1.18481E+03  7.98912E+03 -5.74366E+03  7.75954E+03 -1.07470E+04  1.63841E+03
 -6.64379E+03 -4.99362E+03  1.34848E+02 -9.03967E+03  5.11013E+03 -4.66229E+03  4.83018E+03  1.23715E+03
  8.06957E+02  5.34506E+03 -5.20546E+03  6.65945E+03 -7.39102E+03  2.78544E+03 -7.62742E+03 -2.22639E+03
 -4.65506E+03 -8.78503E+03  1.51369E+03 -1.02495E+04  9.21235E+03 -6.27452E+03  9.23138E+03  1.45231E+03
  6.86700E+03  7.32386E+03 -1.16717E+02  9.40114E+03 -6.50714E+03  5.20445E+03 -7.69838E+03 -2.25262E+02
 -7.12806E+03 -6.79903E+03 -1.59712E+03 -7.22142E+03  3.53144E+03 -5.96729E+03  4.58560E+03 -3.43533E+03
  3.29365E+03  6.33669E+02 -4.55376E+02  1.38147E+03  4.70325E+01 -9.86710E+02  2.28075E+02 -3.82454E+03
  5.84316E+03 -1.68922E+03  7.78337E+03  1.29308E+03  8.08561E+03  4.81535E+03  6.38694E+03  1.10795E+04
 -2.36533E+03  1.26115E+04 -1.08743E+04  9.19841E+03 -1.43569E+04  1.45854E+03 -1.11430E+04 -4.68892E+03
 -5.67937E+03 -8.78325E+03 -3.36883E+02 -7.67837E+03  2.53062E+03 -3.96212E+03  2.32438E+03 -3.06759E+03
  1.71518E+03 -1.91100E+03  2.91204E+03 -2.24634E+03  4.51395E+03 -1.97361E+03  5.01371E+03 -8.87465E+01
  5.57799E+03  1.16939E+03  2.42366E+03  4.52824E+03 -1.77108E+03  4.65338E+03 -6.27760E+03  3.32778E+03
 -7.16279E+03 -1.40558E+03 -3.67529E+03 -5.09530E+03 -1.71064E+02 -7.65903E+03  4.70783E+03 -7.57040E+03
  7.54489E+03 -5.19826E+03  9.43548E+03  2.26647E+02  6.91510E+03  6.04317E+03  1.16800E+03  8.75177E+03
 -2.92858E+03  8.09392E+03 -5.30648E+03  3.08922E+03 -2.78905E+03 -1.13793E+03 -5.51322E+02 -1.72794E+03
 -6.82944E+02  7.15215E+02 -1.22389E+03  2.22456E+03 -3.83281E+03  1.62371E+03 -5.49732E+03 -5.74495E+02
 -2.95608E+03 -4.96400E+03  4.50866E+02 -6.34312E+03  4.14373E+03 -6.64854E+03  6.41928E+03 -1.70886E+03
  6.17044E+03  3.80166E+03  2.57366E+03  5.12732E+03 -1.45377E+03  6.14526E+03 -4.71854E+03  4.49667E+03
 -5.79377E+03  1.17933E+03 -4.96287E+03 -4.29816E+03 -4.65701E+02 -5.67380E+03  2.78522E+03 -3.90427E+03
  4.21942E+03 -1.69812E+03  2.72101E+03  1.50440E+03  1.28388E+03  2.05259E+03  1.06247E+03  1.14538E+03
  2.22090E+03  4.50191E+02  1.39009E+03  9.31684E+02  1.07776E+03  2.68978E+03  1.84258E+03  2.26451E+03
 -9.49811E+02  4.86047E+03 -3.49202E+03  5.91831E+03 -5.82828E+03  1.90560E+03 -6.14728E+03 -1.46378E+03
 -3.17965E+03 -5.07428E+03  6.99538E+02 -7.06980E+03  3.14191E+03 -3.88584E+03  4.94841E+03 -1.27055E+03
  3.03480E+03  3.04785E+03  1.17517E+03  3.97151E+03 -1.67798E+03  2.06932E+03 -1.83917E+03 -1.46062E+02
 -1.14570E+03 -2.65799E+03  2.00887E+03 -2.43269E+03  2.08089E+03 -1.49326E+03  2.01174E+03  8.09455E+02
  1.25203E+03  1.37410E+03  9.82918E+02 -4.69337E+01 -8.18296E+02  1.08848E+03  1.87940E+03 -5.64197E+02
  7.42079E+02 -5.22325E+02  2.36279E+03  1.31958E+03  7.80194E+02  3.14897E+03 -3.49042E+02  4.26343E+03
 -2.69064E+03  2.30409E+03 -4.27209E+03 -1.58901E+01 -3.14971E+03 -1.28376E+03 -6.90989E+02 -2.38034E+03
  4.15233E+02 -2.13122E+03  9.12372E+02 -7.10492E+02  9.42696E+02  1.51085E+03 -1.10248E+03  2.21068E+03
 -2.30703E+03  6.99852E+02 -2.04248E+03 -2.03845E+03 -1.73394E+03 -3.70673E+03  4.85348E+02 -2.70550E+03
  1.34229E+03 -1.13179E+03  1.80840E+03  6.43814E+02  1.78708E+03  1.31718E+02  7.21919E+02  2.01188E+03
 -5.56072E+02  4.74045E+02 -1.83472E+03 -4.31336E+02  1.11911E+03 -1.20916E+03  2.48554E+03 -1.65814E+03
  2.90143E+03  6.41559E+02  3.65965E+03  1.64574E+03  1.25369E+03  4.03363E+03 -7.19879E+02  2.91719E+03
 -2.81395E+03  1.11603E+03 -1.99105E+03 -4.43856E+01 -8.96669E+02 -2.40282E+03  7.93818E+02 -1.31673E+03
  2.63056E+03 -1.23787E+03  1.92646E+03  8.08564E+02  1.35145E+02  1.62902E+03  4.72251E+02  1.44979E+03
 -5.99831E+02  1.68051E+03 -7.94215E+02  5.98654E+02 -2.27966E+02  3.30373E+02 -3.70257E+02  4.13381E+02
 -1.29782E+03  9.57609E+02 -2.36013E+03  1.10519E+03 -2.48522E+03  8.92485E+02 -4.08354E+03 -2.20485E+03
 -1.30427E+03 -3.32922E+03  5.83047E+02 -4.55900E+03  2.90256E+03 -3.16852E+03  4.37166E+03 -1.45933E+03
  3.83160E+03 -1.03466E+02  2.00559E+03  3.52106E+03  3.88658E+01  2.47401E+03 -9.53980E+02  2.15176E+03
 -1.79072E+03  7.53043E+02 -1.23813E+03 -8.78076E+02 -1.19444E+03 -3.92468E+02 -1.19170E+03 -2.81563E+02
 -8.06313E+02  4.05051E+01 -6.01560E+02  3.85218E+02 -1.50332E+02 -4.37211E+02 -1.18190E+03 -1.64168E+03
  1.26666E+03 -1.50787E+03  8.64840E+02  1.43466E+02  1.77670E+03  1.78190E+03 -4.63237E+02  2.31828E+03
 -1.96444E+03  3.45050E+03 -2.91679E+03  1.42054E+03 -3.00942E+03 -6.57188E+02 -2.58511E+03 -2.22925E+03
 -1.31399E+03 -2.53387E+03  4.45257E+02 -2.33754E+03  9.58856E+02 -6.52381E+02  1.15504E+03 -1.08273E+02
  6.95510E+02  9.08619E+02  5.40387E+01  5.96387E+02 -1.04818E+03 -2.85309E+02  2.50246E+01 -4.29250E+01
  1.27376E+03 -2.10593E+02  9.90821E+02  4.80004E+02 -1.21262E+02  7.04704E+02  3.29394E+02  2.49614E+02
 -1.11686E+03  1.15451E+03 -1.30707E+03  1.65859E+02 -1.33207E+03 -1.04313E+03 -1.11967E+02 -1.90364E+03
  1.63470E+03 -7.33878E+02  1.42687E+03 -3.06799E+02  2.03261E+03 -1.31861E+02  1.00965E+03  1.33187E+03
  8.43147E+02  8.86459E+02 -1.28023E+02  9.55357E+02 -7.56647E+02  6.37983E+02 -5.02006E+02 -3.31743E+02
  2.76450E+02  3.90901E+02 -8.52866E+02 -1.00396E+02 -1.02521E+03 -3.07307E+02 -8.57957E+02 -2.51363E+02
 -1.18543E+03  5.94541E+01 -1.98897E+02 -1.30143E+03  1.20577E+03 -1.97675E+03  1.79729E+03 -1.04648E+03
  1.06632E+03  1.44630E+02  7.31438E+02  5.17308E+02 -7.48601E+02  1.28950E+03 -1.13700E+03  1.80470E+03
