 $NMID ID='MM_0lb_SNR400_10hz_g45_19.RAW', FMTDAT='(8E13.5)'
 TRAMP=1., VOLUME=1. $END
  3.09572E+05 -5.87223E+01  3.37315E+05  2.49994E+05  8.39825E+04  3.37898E+05 -1.32660E+05  2.51633E+05
 -1.90363E+05  8.33837E+04 -1.12445E+05 -3.21522E+04  4.25498E+02 -5.06483E+04  5.37993E+04 -4.30922E+02
  3.52411E+04  5.30205E+04 -1.65063E+04  7.51428E+04 -6.13124E+04  6.50758E+04 -8.48768E+04  3.22909E+04
 -8.25161E+04 -1.16423E+04 -5.80434E+04 -5.23129E+04 -1.53388E+04 -7.05919E+04  2.83591E+04 -4.65472E+04
  4.05050E+04  3.97130E+03  1.69327E+04  4.75454E+04 -3.47844E+04  4.85065E+04 -6.75829E+04 -7.47586E+02
 -5.45634E+04 -5.77209E+04 -8.03534E+03 -7.86381E+04  3.48636E+04 -5.61288E+04  4.92811E+04 -1.85784E+04
  4.46689E+04  1.10864E+04  3.22694E+04  2.61020E+04  1.62067E+04  3.02509E+04 -5.03570E+03  2.78347E+04
 -2.21195E+04  1.27922E+04 -1.80412E+04 -4.72137E+03  6.28647E+03 -7.25871E+03  2.29793E+04  1.36359E+04
  7.10789E+03  3.66307E+04 -3.31849E+04  3.65184E+04 -6.53647E+04  2.00196E+03 -5.84427E+04 -4.37520E+04
 -1.22445E+04 -6.55876E+04  4.08533E+04 -4.66717E+04  6.00294E+04 -2.36580E+03  3.61547E+04  3.32480E+04
 -5.57945E+03  3.87499E+04 -3.14633E+04  1.83277E+04 -3.30453E+04 -4.22309E+03 -1.87112E+04 -1.18693E+04
 -9.94082E+03 -1.46635E+04 -1.07589E+03 -1.95424E+04  7.45604E+03 -2.44177E+04  1.57702E+04 -1.33379E+04
  1.06940E+04  5.93487E+03 -9.47552E+03  1.29526E+04 -2.25018E+04 -5.99914E+03 -8.57262E+03 -3.64158E+04
  2.39546E+04 -4.58290E+04  5.09099E+04 -2.02173E+04  4.78620E+04  2.01262E+04  1.66755E+04  4.61434E+04
 -1.64280E+04  3.60734E+04 -2.73330E+04  1.91045E+03 -1.15416E+04 -2.93650E+04  2.11174E+04 -3.56148E+04
  4.31168E+04 -1.07841E+04  3.87471E+04  2.44366E+04  1.96736E+04  4.93679E+04 -8.24882E+03  5.49173E+04
 -3.42249E+04  3.75176E+04 -4.60446E+04  1.05960E+04 -4.56014E+04 -1.88503E+04 -2.52907E+04 -4.08859E+04
  7.96541E+03 -4.08658E+04  3.23354E+04 -1.57788E+04  3.16161E+04  1.14091E+04  5.26755E+03  2.05474E+04
 -1.46519E+04  1.00952E+04 -1.10251E+04 -7.37325E+03  5.61345E+03 -1.11066E+04  1.85131E+04  6.14810E+03
  1.43354E+04  2.24759E+04 -5.50702E+03  2.62893E+04 -2.32783E+04  1.37515E+04 -2.97990E+04 -3.30708E+03
 -2.33724E+04 -1.84153E+04 -1.13828E+04 -2.31845E+04  3.88558E+03 -2.31496E+04  1.85741E+04 -2.12320E+04
  2.99166E+04 -1.37558E+04  3.60878E+04  4.63911E+03  2.55497E+04  2.36502E+04  4.72983E+03  4.06331E+04
 -1.87483E+04  3.25748E+04 -2.93445E+04  1.13684E+04 -2.11819E+04 -1.07034E+04 -4.53057E+03 -1.35879E+04
  1.07705E+03 -1.98424E+03 -6.35559E+03  7.87203E+03 -1.96170E+04  5.07735E+03 -2.00490E+04 -8.42961E+03
 -1.10438E+04 -2.24614E+04  5.76326E+03 -2.64026E+04  1.76624E+04 -1.89920E+04  2.09981E+04 -2.03074E+03
  1.37697E+04  1.50892E+04 -1.80367E+03  2.22541E+04 -1.57396E+04  1.21037E+04 -2.14522E+04 -4.96901E+03
 -1.63033E+04 -2.01566E+04 -2.06478E+03 -2.64412E+04  1.20838E+04 -2.18370E+04  2.20637E+04 -1.16616E+04
  2.09537E+04  3.68237E+01  1.52616E+04  5.08453E+03  8.96059E+03  7.94989E+02  1.12877E+04 -1.38477E+03
  2.10335E+04  2.20242E+03  2.32277E+04  1.73301E+04  1.62218E+04  3.54123E+04 -2.91260E+03  4.15018E+04
 -2.33813E+04  3.36547E+04 -3.82706E+04  1.71493E+04 -4.13193E+04 -2.85768E+03 -3.40962E+04 -2.42875E+04
 -1.41126E+04 -3.41101E+04  1.17648E+04 -2.97535E+04  2.56829E+04 -1.43317E+04  2.31001E+04  7.33286E+03
  7.86940E+03  1.63779E+04 -1.11271E+04  1.44915E+04 -1.93215E+04  3.19797E+03 -1.44573E+04 -1.29634E+04
  2.77412E+02 -1.78655E+04  1.03314E+04 -1.40397E+04  1.21073E+04 -1.57412E+03  3.00206E+03  8.93224E+03
 -7.79231E+03  2.81876E+03 -8.60951E+03 -5.97921E+03 -1.68413E+03 -1.67692E+04  1.11208E+04 -1.78683E+04
  2.15264E+04 -1.01870E+04  2.38642E+04  3.59696E+03  2.05767E+04  1.71678E+04  1.05850E+04  2.71517E+04
 -4.69204E+03  2.88592E+04 -1.85333E+04  1.79597E+04 -2.04041E+04  3.80974E+03 -1.41236E+04 -4.79212E+03
 -6.63292E+03 -6.56892E+03 -3.18661E+02  3.62350E+02 -2.10226E+03  2.37594E+03 -6.64124E+03  4.81412E+03
 -1.30948E+04 -1.34372E+03 -1.34304E+04 -1.08374E+04 -5.40195E+03 -1.81110E+04  5.42594E+03 -1.37913E+04
  1.17959E+04 -5.50581E+03  7.59635E+03  3.76922E+03 -2.15912E+02  6.09774E+03 -7.52265E+03 -5.54906E+02
 -6.08087E+03 -8.40251E+03 -1.21768E+03 -1.32856E+04  7.54496E+03 -1.47713E+04  1.80381E+04 -7.62280E+03
  2.14225E+04  1.70336E+03  1.53127E+04  1.26073E+04  1.96695E+03  1.72468E+04 -8.55642E+03  1.37838E+04
 -1.10227E+04  4.25032E+03 -5.61152E+03 -3.36457E+03  2.28005E+03 -4.15381E+03  6.98641E+03 -9.84451E+02
  6.27033E+03  6.75173E+03  1.32308E+03  1.10448E+04 -8.14151E+03  1.12126E+04 -1.46346E+04  2.78508E+03
 -1.07351E+04 -8.27331E+03 -1.71246E+01 -1.24420E+04  7.81131E+03 -5.88325E+03  8.80697E+03  2.80385E+03
  2.15461E+03  8.94206E+03 -7.57842E+03  1.02957E+04 -1.24351E+04  4.34244E+03 -1.25001E+04 -3.70789E+03
 -6.75903E+03 -1.39839E+04  3.54908E+03 -1.55265E+04  1.36726E+04 -1.01580E+04  1.55216E+04  2.68836E+03
  8.54154E+03  1.17325E+04 -1.58651E+03  1.42958E+04 -1.06638E+04  8.32845E+03 -1.15001E+04 -1.43710E+03
 -9.85918E+03 -9.14460E+03 -1.32102E+03 -1.10223E+04  5.61751E+03 -9.40983E+03  7.16237E+03 -3.62133E+03
  5.12720E+03  1.61395E+03 -6.54047E+02  1.50748E+03 -9.59774E+02 -2.77088E+03  2.79638E+03 -5.65472E+03
  9.95993E+03 -5.29022E+03  1.44786E+04  1.43365E+03  1.35849E+04  9.14533E+03  9.22569E+03  1.84585E+04
 -3.77812E+03  2.13043E+04 -1.72117E+04  1.58100E+04 -2.32549E+04  2.76260E+03 -1.81956E+04 -7.16826E+03
 -9.60693E+03 -1.57628E+04 -7.26969E+02 -1.32713E+04  4.05305E+03 -7.41064E+03  4.88258E+03 -4.09864E+03
  2.75058E+03 -2.00444E+03  2.75320E+03 -3.82908E+03  5.43084E+03 -3.64530E+03  7.24395E+03 -1.00495E+03
  9.64895E+03  1.90759E+03  5.29726E+03  8.58133E+03 -1.55306E+03  1.02192E+04 -1.02496E+04  7.46310E+03
 -1.34920E+04 -1.46896E+03 -7.98797E+03 -9.06887E+03 -7.88964E+02 -1.33445E+04  7.79493E+03 -1.36850E+04
  1.43561E+04 -7.61430E+03  1.69330E+04  2.47403E+03  1.23861E+04  1.15835E+04  1.94990E+03  1.56782E+04
 -6.84915E+03  1.24707E+04 -9.89133E+03  4.29249E+03 -6.30832E+03 -1.07116E+03 -3.35128E+03 -2.65811E+03
 -1.03324E+03  2.79254E+02 -2.24522E+03  3.07424E+03 -4.73678E+03  1.87585E+03 -9.19517E+03 -1.26955E+03
 -6.92188E+03 -8.19829E+03  1.79787E+02 -1.29066E+04  8.67613E+03 -1.20637E+04  1.26005E+04 -4.38805E+03
  1.29810E+04  6.25713E+03  6.26529E+03  1.18538E+04 -2.68599E+03  1.25832E+04 -8.94744E+03  7.81969E+03
 -1.21436E+04  1.11730E+03 -9.12645E+03 -8.55326E+03 -4.40825E+02 -1.02629E+04  6.40966E+03 -8.17769E+03
  7.77663E+03 -2.81557E+03  5.74270E+03  1.85046E+03  1.54232E+03  4.84224E+03  1.06860E+03  1.19964E+03
  2.94750E+03  8.91703E+02  3.06619E+03  1.91162E+03  3.52092E+03  4.91445E+03  2.93284E+03  6.05565E+03
 -1.42571E+03  9.85908E+03 -9.01709E+03  9.95138E+03 -1.28945E+04  2.64291E+03 -1.40332E+04 -5.52991E+03
 -5.89386E+03 -1.26910E+04  1.86641E+03 -1.42982E+04  8.22870E+03 -8.95664E+03  1.05671E+04 -2.80591E+03
  7.55710E+03  4.49311E+03  1.78019E+03  7.36439E+03 -3.50960E+03  4.61163E+03 -4.26842E+03 -8.16207E+02
 -1.97870E+03 -5.80986E+03  3.34827E+03 -5.97545E+03  4.99316E+03 -2.47996E+03  5.37976E+03  1.19507E+03
  3.92049E+03  2.22814E+03  1.78062E+03  2.02121E+03 -8.32831E+02  1.68411E+03  2.11757E+03 -5.91461E+02
  2.35172E+03 -8.83062E+02  5.18161E+03  1.96918E+03  2.81511E+03  6.81013E+03 -1.22977E+03  9.23155E+03
 -5.94514E+03  5.90757E+03 -8.31408E+03  1.50485E+03 -7.36342E+03 -3.07961E+03 -2.68058E+03 -4.41095E+03
  9.82321E+02 -5.16944E+03  4.08781E+03 -1.78830E+03  2.66625E+03  2.82590E+03 -1.39895E+03  4.78807E+03
 -5.62578E+03  2.66335E+03 -6.05014E+03 -3.15630E+03 -3.15690E+03 -6.73290E+03  7.17251E+02 -6.39968E+03
  4.36568E+03 -4.22359E+03  5.24456E+03 -7.09482E+02  4.32420E+03  1.29983E+03  9.44565E+02  4.13991E+03
 -2.41053E+03  1.38112E+03 -3.71745E+03 -2.48775E+03  1.35401E+03 -5.29552E+03  6.03675E+03 -4.04632E+03
  8.18555E+03 -1.64700E+02  8.98404E+03  5.78675E+03  2.38049E+03  8.51377E+03 -2.34609E+03  8.35920E+03
 -7.10607E+03  3.86236E+03 -6.82229E+03 -1.15897E+03 -4.12822E+03 -5.20583E+03  8.09596E+02 -4.93576E+03
  4.87053E+03 -2.50442E+03  4.87205E+03  1.72989E+03  1.68028E+03  4.40261E+03 -7.06377E+02  3.90595E+03
 -2.72066E+03  2.61520E+03 -2.36286E+03  1.26373E+03  1.21931E+02  1.12904E+03 -8.74784E+02  2.03978E+03
 -1.75302E+03  3.52256E+03 -5.86046E+03  3.83085E+03 -7.55239E+03 -3.84720E+02 -9.22744E+03 -4.74544E+03
 -5.17517E+03 -1.06601E+04  1.59052E+03 -1.26677E+04  7.62790E+03 -1.04335E+04  1.21634E+04 -3.53789E+03
  1.15814E+04  2.01102E+03  6.99918E+03  7.27904E+03  3.88325E+02  8.22026E+03 -3.39547E+03  6.50056E+03
 -4.74082E+03  2.32402E+03 -3.33586E+03 -4.75006E+02 -1.50586E+03 -3.00451E+02 -4.28721E+02 -5.50246E+02
 -1.74145E+03  7.78478E+00 -1.73282E+03 -4.07374E+02 -5.79244E+02 -1.79109E+03 -4.52621E+02 -3.24181E+03
  3.97221E+03 -3.28599E+03  6.32516E+03 -1.69673E+01  6.17320E+03  4.20890E+03  1.05152E+03  8.82075E+03
 -4.07310E+03  1.00930E+04 -9.02330E+03  5.79202E+03 -9.93648E+03 -9.08351E+02 -7.47430E+03 -6.00864E+03
 -3.42883E+03 -8.40517E+03  2.50025E+03 -8.07600E+03  5.97194E+03 -3.68474E+03  5.28275E+03  1.79028E+01
  3.56885E+03  2.79228E+03 -9.60940E+02  3.35146E+03 -1.50923E+03 -6.46662E+02 -1.09384E+02 -1.62271E+03
  2.99106E+03 -1.06946E+03  3.31442E+03  2.08259E+03  2.37564E+03  4.07792E+03  2.62885E+02  4.05917E+03
 -3.46037E+03  3.81323E+03 -5.72742E+03  1.78788E+02 -5.16710E+03 -4.35129E+03 -1.21406E+03 -7.08250E+03
  3.37734E+03 -6.00130E+03  5.67655E+03 -9.64575E+02  6.40986E+03  1.13381E+03  3.29325E+03  5.52756E+03
  7.77170E+02  5.59595E+03 -2.15779E+03  4.71972E+03 -2.96583E+03  2.46486E+03 -2.61792E+03  1.40576E+03
 -1.39203E+03  2.10431E+02 -2.22184E+03 -1.28743E+02 -3.54149E+03  1.75326E+03 -4.27376E+03 -1.42118E+03
 -4.68426E+03 -3.42698E+03 -1.55905E+03 -5.83016E+03  3.22880E+03 -6.49619E+03  5.13108E+03 -2.63433E+03
  5.60178E+03  8.11934E+02  2.78596E+03  3.69982E+03 -7.01895E+02  5.80972E+03 -4.87190E+03  4.11569E+03
