 $NMID ID='MM_0lb_SNR400_12hz_g40_64.RAW', FMTDAT='(8E13.5)'
 TRAMP=1., VOLUME=1. $END
  3.09808E+05  5.14738E+02  3.37956E+05  2.50673E+05  8.48948E+04  3.38435E+05 -1.32227E+05  2.51357E+05
 -1.90307E+05  8.33050E+04 -1.12313E+05 -3.24467E+04  2.36026E+02 -5.09985E+04  5.38836E+04 -4.53186E+02
  3.55270E+04  5.32622E+04 -1.64912E+04  7.52227E+04 -6.09713E+04  6.34893E+04 -8.45677E+04  3.18975E+04
 -8.13812E+04 -1.15858E+04 -5.70909E+04 -5.14622E+04 -1.47252E+04 -6.94986E+04  2.73594E+04 -4.55332E+04
  4.00212E+04  4.27051E+03  1.60423E+04  4.83923E+04 -3.42431E+04  4.72941E+04 -6.70684E+04 -5.54587E+01
 -5.34198E+04 -5.71162E+04 -7.17266E+03 -7.73071E+04  3.43633E+04 -5.53747E+04  4.84861E+04 -1.71827E+04
  4.36578E+04  1.19116E+04  3.20958E+04  2.51679E+04  1.59939E+04  3.02005E+04 -5.22397E+03  2.65457E+04
 -2.23031E+04  1.19811E+04 -1.82285E+04 -4.93745E+03  5.42348E+03 -7.48257E+03  2.31290E+04  1.26087E+04
  7.65751E+03  3.64369E+04 -3.21579E+04  3.55990E+04 -6.38351E+04  1.93321E+03 -5.66677E+04 -4.27309E+04
 -1.29495E+04 -6.32395E+04  3.96069E+04 -4.60516E+04  5.87306E+04 -2.72680E+03  3.48123E+04  3.30233E+04
 -6.02854E+03  3.68923E+04 -3.00656E+04  1.60871E+04 -3.07982E+04 -4.29719E+03 -1.69983E+04 -1.12491E+04
 -7.82146E+03 -1.36153E+04 -8.73938E+02 -1.84014E+04  7.71531E+03 -2.32642E+04  1.57745E+04 -1.33028E+04
  1.14794E+04  5.59422E+03 -9.28125E+03  1.34431E+04 -2.13243E+04 -5.07476E+03 -8.94512E+03 -3.43988E+04
  2.29930E+04 -4.38368E+04  4.89132E+04 -1.94430E+04  4.49984E+04  2.01072E+04  1.57815E+04  4.42432E+04
 -1.58192E+04  3.37027E+04 -2.60131E+04  1.93200E+03 -1.07832E+04 -2.90227E+04  2.05595E+04 -3.44731E+04
  4.20504E+04 -9.35753E+03  3.69101E+04  2.39089E+04  1.87654E+04  4.72506E+04 -8.01547E+03  5.11787E+04
 -3.21913E+04  3.46532E+04 -4.32172E+04  9.72925E+03 -4.37245E+04 -1.66611E+04 -2.40010E+04 -3.91892E+04
  7.23228E+03 -3.84220E+04  3.23124E+04 -1.50448E+04  2.97747E+04  1.09558E+04  4.55465E+03  1.89235E+04
 -1.41491E+04  8.78478E+03 -1.03134E+04 -7.55898E+03  5.55935E+03 -1.12225E+04  1.77663E+04  5.68900E+03
  1.40712E+04  2.26659E+04 -4.90516E+03  2.54307E+04 -2.26265E+04  1.21102E+04 -2.83182E+04 -4.18511E+03
 -2.18585E+04 -1.74461E+04 -8.57933E+03 -2.15830E+04  3.85991E+03 -2.02668E+04  1.57471E+04 -1.89883E+04
  2.71260E+04 -1.32077E+04  3.36892E+04  3.29951E+03  2.49775E+04  2.07473E+04  4.06640E+03  3.75888E+04
 -1.82996E+04  3.10413E+04 -2.82838E+04  1.03637E+04 -2.17521E+04 -1.05583E+04 -5.03246E+03 -1.33456E+04
  1.06304E+03 -2.91739E+03 -5.47148E+03  6.60469E+03 -1.70879E+04  5.82931E+03 -1.68445E+04 -7.46380E+03
 -1.04988E+04 -1.97299E+04  4.77701E+03 -2.39004E+04  1.62990E+04 -1.72364E+04  1.93693E+04 -1.87668E+03
  1.24786E+04  1.39321E+04 -1.00699E+03  1.99442E+04 -1.37682E+04  1.15282E+04 -1.98024E+04 -4.45503E+03
 -1.44644E+04 -1.73868E+04 -1.99543E+03 -2.36919E+04  1.04085E+04 -1.92930E+04  1.98440E+04 -1.04559E+04
  1.87307E+04 -1.39328E+02  1.32315E+04  5.05816E+03  7.74279E+03  4.28444E+02  1.00917E+04 -1.78786E+03
  1.86859E+04  2.88995E+03  2.04549E+04  1.59757E+04  1.32942E+04  3.19618E+04 -3.17259E+03  3.66291E+04
 -2.17407E+04  2.93346E+04 -3.42672E+04  1.47741E+04 -3.47946E+04 -2.19538E+03 -2.98673E+04 -2.03196E+04
 -1.23187E+04 -2.95813E+04  1.01582E+04 -2.64883E+04  2.28922E+04 -1.28632E+04  2.02983E+04  6.11780E+03
  7.43969E+03  1.53640E+04 -9.46049E+03  1.37967E+04 -1.69473E+04  2.89052E+03 -1.35182E+04 -1.09414E+04
  8.07339E+01 -1.59579E+04  8.31022E+03 -1.24102E+04  1.04892E+04 -1.38604E+03  2.72534E+03  7.14467E+03
 -7.30874E+03  2.55919E+03 -7.04751E+03 -4.32063E+03 -1.21842E+03 -1.39491E+04  9.90650E+03 -1.50352E+04
  1.80582E+04 -8.55801E+03  1.97094E+04  3.28534E+03  1.69747E+04  1.39832E+04  7.64243E+03  2.22279E+04
 -3.73867E+03  2.44443E+04 -1.59393E+04  1.48211E+04 -1.75507E+04  3.61896E+03 -1.24487E+04 -3.66913E+03
 -5.71944E+03 -5.41546E+03 -4.23683E+02  1.11320E+03 -2.40465E+03  2.90763E+03 -5.47197E+03  4.22337E+03
 -1.12375E+04 -6.68557E+02 -1.19101E+04 -9.03574E+03 -4.69052E+03 -1.62385E+04  5.35507E+03 -1.21770E+04
  1.00849E+04 -4.75393E+03  6.94940E+03  2.92237E+03 -5.01716E+02  4.48900E+03 -6.32130E+03  2.05356E+02
 -5.74689E+03 -7.73790E+03 -1.03808E+03 -1.13691E+04  6.95584E+03 -1.22840E+04  1.60076E+04 -6.83317E+03
  1.72924E+04  1.24947E+03  1.34321E+04  1.05874E+04  3.38941E+03  1.44055E+04 -7.96575E+03  1.20845E+04
 -9.69308E+03  3.19803E+03 -5.03934E+03 -2.73045E+03  1.65140E+03 -3.52712E+03  5.87652E+03 -7.55644E+02
  6.28314E+03  5.30995E+03  1.10534E+03  1.00818E+04 -6.86004E+03  9.19424E+03 -1.21301E+04  2.22854E+03
 -8.62141E+03 -6.60739E+03  5.83217E+02 -1.07617E+04  7.08813E+03 -4.71277E+03  6.45603E+03  2.38666E+03
  9.74616E+02  7.25548E+03 -5.81255E+03  8.43803E+03 -9.73839E+03  3.72621E+03 -9.81898E+03 -3.77039E+03
 -6.18233E+03 -1.15995E+04  2.28336E+03 -1.28146E+04  1.12894E+04 -8.05905E+03  1.17645E+04  1.85948E+03
  7.57319E+03  9.64516E+03 -6.03899E+02  1.17274E+04 -8.51140E+03  5.86711E+03 -8.69722E+03 -6.40263E+02
 -8.38178E+03 -7.61662E+03 -2.33771E+03 -8.98155E+03  4.77805E+03 -7.62606E+03  5.68623E+03 -2.81933E+03
  4.66055E+03  1.45550E+03 -9.50113E+02  9.73556E+02  1.73119E+02 -2.24762E+03  8.74312E+02 -5.35894E+03
  7.29164E+03 -3.00509E+03  1.10806E+04  1.79530E+03  1.09223E+04  7.58899E+03  7.82065E+03  1.45469E+04
 -3.67409E+03  1.67088E+04 -1.40802E+04  1.22820E+04 -1.85579E+04  1.74091E+03 -1.46503E+04 -5.84658E+03
 -7.43468E+03 -1.13541E+04 -6.29229E+02 -1.02169E+04  3.59911E+03 -5.68848E+03  3.10517E+03 -3.76513E+03
  1.77975E+03 -2.02974E+03  2.63103E+03 -3.63370E+03  4.53915E+03 -2.18999E+03  5.85178E+03 -2.60414E+02
  7.35748E+03  1.73357E+03  3.18830E+03  6.88750E+03 -1.93609E+03  6.67491E+03 -8.95917E+03  5.41247E+03
 -1.04067E+04  1.10077E+02 -6.26737E+03 -7.36100E+03  5.10957E+01 -1.05931E+04  5.83638E+03 -1.13709E+04
  1.14468E+04 -6.23237E+03  1.31349E+04  1.71071E+03  9.16626E+03  8.55037E+03  1.49011E+03  1.20891E+04
 -4.33123E+03  1.01277E+04 -7.57361E+03  3.90307E+03 -4.67741E+03 -1.91989E+03 -1.58966E+03 -1.02705E+03
 -9.95854E+02 -5.06493E+01 -1.44168E+03  1.98454E+03 -3.74755E+03  1.82798E+03 -7.62033E+03 -7.51182E+02
 -4.39386E+03 -6.82630E+03  3.56810E+02 -9.97482E+03  5.37379E+03 -8.98207E+03  8.96938E+03 -3.57735E+03
  9.29353E+03  4.27780E+03  4.45567E+03  8.50429E+03 -2.16143E+03  9.38429E+03 -6.66149E+03  6.61570E+03
 -8.83097E+03  7.75189E+01 -7.27973E+03 -5.25872E+03 -5.33221E+02 -7.84414E+03  3.53902E+03 -6.31252E+03
  5.74628E+03 -1.83891E+03  4.20804E+03  1.21419E+03  1.63244E+03  3.31637E+03  7.77363E+02  1.02186E+03
  1.12664E+03  1.41225E+03  2.80225E+03  1.72441E+03  2.60416E+03  3.84471E+03  2.60691E+03  4.91629E+03
 -2.21027E+03  6.79299E+03 -6.82233E+03  7.91633E+03 -9.65133E+03  1.95496E+03 -1.03504E+04 -3.41372E+03
 -5.07190E+03 -9.78317E+03  1.13014E+03 -1.13123E+04  5.26395E+03 -6.90919E+03  7.27441E+03 -1.64089E+03
  6.34312E+03  3.89310E+03  1.55954E+03  6.00694E+03 -2.08206E+03  3.09221E+03 -3.54522E+03 -8.32433E+02
 -1.62532E+03 -4.46881E+03  2.57908E+03 -3.77793E+03  3.14749E+03 -2.26407E+03  3.30583E+03  9.24765E+02
  1.64390E+03  1.67782E+03  1.30049E+03  5.73718E+02 -4.10911E+02  1.91561E+03  9.18268E+02 -7.68539E+02
  9.78544E+02 -2.26406E+02  4.11514E+03  1.08188E+03  1.51858E+03  4.58819E+03 -2.63438E+02  6.93026E+03
 -3.83524E+03  3.95094E+03 -5.31043E+03  9.27514E+02 -5.21410E+03 -1.92940E+03 -2.17959E+03 -3.93029E+03
  2.58100E+02 -3.49448E+03  2.31768E+03 -1.29883E+03  1.93121E+03  1.68108E+03 -5.08856E+02  3.05692E+03
 -3.64124E+03  1.61591E+03 -4.39569E+03 -1.83566E+03 -2.33115E+03 -4.73500E+03  5.03796E+02 -4.61893E+03
  3.08401E+03 -3.04600E+03  3.10278E+03 -3.11078E+02  3.49334E+03  1.11318E+03  4.68312E+02  2.84955E+03
 -1.30197E+03  1.32127E+03 -1.90271E+03 -1.94200E+03  1.11441E+03 -3.74789E+03  5.07797E+03 -3.36773E+03
  5.69611E+03  7.68813E+02  5.50193E+03  3.19482E+03  1.79940E+03  6.27847E+03 -1.68870E+03  5.26094E+03
 -4.77154E+03  1.64083E+03 -5.64138E+03 -1.53675E+03 -2.25457E+03 -3.67580E+03  6.14769E+00 -3.36725E+03
  3.55489E+03 -7.34334E+02  3.51903E+03  1.71392E+03  1.14506E+03  2.94968E+03 -2.34099E+02  2.52993E+03
 -1.43948E+03  2.35630E+03 -1.00323E+03  2.83457E+02 -5.58193E+02  4.01811E+02 -1.23503E+03  1.35227E+03
 -1.64196E+03  2.72904E+03 -3.71160E+03  1.72803E+03 -5.45301E+03  6.90916E+02 -6.68227E+03 -3.63017E+03
 -2.87395E+03 -8.13443E+03  1.48856E+03 -9.18277E+03  4.67111E+03 -7.92713E+03  8.35934E+03 -3.16642E+03
  7.10368E+03  1.65979E+03  4.28808E+03  4.79981E+03  1.81753E+02  5.21935E+03 -2.50213E+03  4.35999E+03
 -3.36431E+03  2.26397E+03 -2.14246E+03 -4.77466E+02 -5.46560E+02 -1.72645E+02 -6.55662E+02 -5.78135E+01
 -1.29892E+03 -5.21985E+02 -7.67063E+02 -7.08366E+01 -2.75572E+02 -1.42724E+03 -1.74878E+02 -1.37187E+03
  3.35718E+03 -1.74054E+03  3.76151E+03 -9.40688E+01  4.39236E+03  3.28845E+03  7.45232E+02  6.16226E+03
 -2.37028E+03  6.88255E+03 -6.23333E+03  4.17324E+03 -6.25163E+03 -4.61122E+02 -5.29275E+03 -4.38773E+03
 -2.11464E+03 -5.79541E+03  1.74888E+03 -4.95624E+03  3.63593E+03 -2.72109E+03  3.75499E+03  2.64590E+02
  2.69451E+03  1.65817E+03 -2.66785E+02  1.74282E+03 -1.15992E+03 -3.69981E+02  6.72478E+01 -7.97604E+02
  1.64175E+03 -7.00646E+02  1.97173E+03 -1.58769E+02  8.06786E+02  2.02587E+03  2.79707E+02  3.02367E+03
 -2.77257E+03  1.97497E+03 -3.90973E+03  9.79293E+00 -3.65846E+03 -2.78672E+03 -3.33608E+02 -3.84764E+03
  2.45876E+03 -3.46746E+03  3.59480E+03 -8.25653E+02  4.42012E+03  1.96888E+02  3.04866E+03  3.58355E+03
  6.84735E+02  3.20688E+03 -1.28124E+03  2.92144E+03 -2.14372E+03  1.60668E+03 -2.44340E+03  4.33809E+02
 -1.01189E+03 -5.67168E+02 -1.37935E+03  2.23745E+02 -2.26518E+03  3.01257E+02 -3.30757E+03 -5.17456E+02
 -3.42380E+03 -1.78238E+03 -9.90595E+02 -3.47142E+03  1.94645E+03 -4.33071E+03  3.27074E+03 -1.76628E+03
  3.47069E+03  3.91321E+02  1.41270E+03  2.50004E+03 -6.62154E+02  3.05348E+03 -2.38057E+03  2.71157E+03
