 $NMID ID='MM_0lb_SNR400_8hz_g45_47.RAW', FMTDAT='(8E13.5)'
 TRAMP=1., VOLUME=1. $END
  3.10049E+05  5.31091E+02  3.38439E+05  2.51450E+05  8.43785E+04  3.38837E+05 -1.32781E+05  2.51777E+05
 -1.90680E+05  8.34167E+04 -1.12731E+05 -3.17003E+04 -1.99796E+02 -5.07751E+04  5.29962E+04  1.94784E+02
  3.58590E+04  5.33847E+04 -1.66313E+04  7.63876E+04 -6.13937E+04  6.38268E+04 -8.54474E+04  3.22227E+04
 -8.21840E+04 -1.20967E+04 -5.82518E+04 -5.22484E+04 -1.51388E+04 -7.13510E+04  2.83145E+04 -4.63109E+04
  4.12660E+04  3.57386E+03  1.66872E+04  4.93600E+04 -3.55087E+04  4.88736E+04 -6.81152E+04 -4.42353E+02
 -5.48238E+04 -5.77395E+04 -7.34120E+03 -7.88793E+04  3.44025E+04 -5.69798E+04  4.96054E+04 -1.75660E+04
  4.50255E+04  1.13529E+04  3.27464E+04  2.67372E+04  1.57230E+04  3.05455E+04 -5.99451E+03  2.81412E+04
 -2.32329E+04  1.20222E+04 -1.80624E+04 -7.05941E+03  6.66884E+03 -7.87222E+03  2.38998E+04  1.37983E+04
  6.86436E+03  3.73941E+04 -3.37131E+04  3.72210E+04 -6.62312E+04  1.87900E+03 -5.91427E+04 -4.45942E+04
 -1.34322E+04 -6.66325E+04  4.15816E+04 -4.83806E+04  6.26144E+04 -2.57151E+03  3.67226E+04  3.44348E+04
 -5.51176E+03  3.97502E+04 -3.12604E+04  1.85939E+04 -3.34846E+04 -3.36878E+03 -1.90051E+04 -1.23508E+04
 -1.00207E+04 -1.54422E+04 -1.55298E+02 -1.95842E+04  8.92328E+03 -2.41404E+04  1.56077E+04 -1.22999E+04
  1.07141E+04  6.45350E+03 -1.11762E+04  1.30479E+04 -2.39389E+04 -6.69269E+03 -8.91108E+03 -3.73055E+04
  2.50383E+04 -4.76860E+04  5.23585E+04 -2.01256E+04  4.83061E+04  2.10039E+04  1.78042E+04  4.68874E+04
 -1.70449E+04  3.66022E+04 -2.79877E+04  2.82568E+03 -1.17187E+04 -3.01519E+04  2.26702E+04 -3.73844E+04
  4.48021E+04 -1.13906E+04  4.11488E+04  2.47300E+04  2.23891E+04  5.13160E+04 -8.24523E+03  5.70345E+04
 -3.63397E+04  3.84949E+04 -4.72869E+04  1.09523E+04 -4.81832E+04 -1.91898E+04 -2.66466E+04 -4.26179E+04
  9.08372E+03 -4.20852E+04  3.45242E+04 -1.72135E+04  3.18568E+04  1.10753E+04  4.86966E+03  2.08090E+04
 -1.34668E+04  1.02891E+04 -1.07425E+04 -6.81067E+03  5.85541E+03 -1.20175E+04  1.90743E+04  4.71184E+03
  1.55491E+04  2.29561E+04 -5.18556E+03  2.71333E+04 -2.30388E+04  1.42698E+04 -3.20253E+04 -2.78796E+03
 -2.63433E+04 -1.94283E+04 -1.14044E+04 -2.59055E+04  4.08725E+03 -2.68453E+04  2.04363E+04 -2.39770E+04
  3.30151E+04 -1.41514E+04  3.87986E+04  5.20916E+03  2.80957E+04  2.46532E+04  3.95043E+03  4.19025E+04
 -1.98641E+04  3.43398E+04 -3.15348E+04  1.21883E+04 -2.27501E+04 -1.03467E+04 -5.10107E+03 -1.29286E+04
  7.34813E+02 -1.21620E+03 -7.80389E+03  8.63701E+03 -2.04790E+04  5.43644E+03 -2.13202E+04 -9.86494E+03
 -1.27260E+04 -2.43531E+04  5.84821E+03 -2.85081E+04  1.91410E+04 -2.01578E+04  2.33565E+04 -2.66944E+03
  1.53802E+04  1.60665E+04 -7.52091E+02  2.37985E+04 -1.66060E+04  1.46474E+04 -2.35367E+04 -4.80593E+03
 -1.70952E+04 -2.18375E+04 -2.68192E+03 -2.86200E+04  1.19418E+04 -2.41499E+04  2.35143E+04 -1.20024E+04
  2.19620E+04 -8.22240E+02  1.63796E+04  6.15986E+03  9.10229E+03  1.57250E+03  1.26143E+04 -2.29915E+03
  2.30961E+04  2.97138E+03  2.57104E+04  1.87981E+04  1.78939E+04  3.92658E+04 -2.38227E+03  4.54865E+04
 -2.56261E+04  3.74852E+04 -4.27543E+04  2.01020E+04 -4.62592E+04 -3.64795E+03 -3.72769E+04 -2.70604E+04
 -1.47831E+04 -3.82782E+04  1.35284E+04 -3.35700E+04  2.92975E+04 -1.63023E+04  2.47884E+04  7.67857E+03
  8.23899E+03  1.84250E+04 -1.21737E+04  1.58590E+04 -2.10872E+04  2.70661E+03 -1.53509E+04 -1.40813E+04
  3.66499E+02 -1.91696E+04  9.76272E+03 -1.52141E+04  1.46811E+04 -1.73069E+03  2.78202E+03  9.46069E+03
 -8.34706E+03  4.12581E+03 -1.06241E+04 -7.47689E+03 -2.52755E+03 -1.80405E+04  1.23993E+04 -2.08332E+04
  2.38647E+04 -1.14704E+04  2.74749E+04  3.05410E+03  2.38678E+04  1.99833E+04  1.11958E+04  3.02568E+04
 -6.01328E+03  3.32572E+04 -2.13329E+04  2.04835E+04 -2.34136E+04  4.09571E+03 -1.59755E+04 -5.78816E+03
 -7.16305E+03 -7.67873E+03 -8.86694E+02 -1.85326E+02 -3.05316E+03  3.49741E+03 -8.35250E+03  5.56695E+03
 -1.47476E+04 -5.44835E+02 -1.65162E+04 -1.29604E+04 -6.60654E+03 -2.04886E+04  7.75393E+03 -1.58697E+04
  1.29765E+04 -6.41131E+03  9.76048E+03  6.11040E+03 -3.98980E+02  6.60238E+03 -8.72936E+03 -6.40173E+02
 -8.02361E+03 -9.74836E+03 -1.07896E+03 -1.64074E+04  1.01516E+04 -1.66600E+04  2.10208E+04 -8.45599E+03
  2.52234E+04  2.04745E+03  1.84669E+04  1.53332E+04  2.61246E+03  2.04807E+04 -1.01366E+04  1.62196E+04
 -1.28654E+04  5.44605E+03 -6.02780E+03 -3.09903E+03  2.18524E+03 -4.49307E+03  8.32506E+03 -7.76778E+02
  7.77600E+03  8.25606E+03  2.03067E+03  1.30267E+04 -9.52434E+03  1.28970E+04 -1.62792E+04  2.61803E+03
 -1.07414E+04 -9.05235E+03  1.07966E+03 -1.41074E+04  9.22531E+03 -7.98672E+03  1.04287E+04  3.25133E+03
  2.83074E+03  1.08694E+04 -8.01044E+03  1.25633E+04 -1.53795E+04  5.78951E+03 -1.52877E+04 -4.98612E+03
 -8.86660E+03 -1.69982E+04  3.92564E+03 -2.01390E+04  1.68882E+04 -1.09447E+04  1.79121E+04  3.91313E+03
  1.04582E+04  1.45804E+04 -1.83608E+03  1.73011E+04 -1.27259E+04  8.89652E+03 -1.41999E+04 -1.15661E+03
 -1.12712E+04 -1.15237E+04 -1.56790E+03 -1.33288E+04  7.07845E+03 -1.02027E+04  8.73203E+03 -3.70308E+03
  5.67706E+03  2.72728E+03 -1.00382E+03  1.65468E+03 -5.65857E+02 -3.38070E+03  3.75876E+03 -8.68025E+03
  1.23986E+04 -4.88958E+03  1.68919E+04  9.56318E+02  1.61074E+04  1.17176E+04  1.01997E+04  2.24303E+04
 -5.70104E+03  2.63534E+04 -2.08359E+04  1.82916E+04 -2.74016E+04  4.24462E+03 -2.24349E+04 -9.44986E+03
 -1.11443E+04 -1.80805E+04 -1.10252E+03 -1.60532E+04  4.85487E+03 -8.95133E+03  5.68377E+03 -4.92516E+03
  3.54138E+03 -3.60854E+03  4.86670E+03 -3.67203E+03  5.73763E+03 -4.33694E+03  8.79400E+03 -1.74551E+03
  1.12171E+04  1.89864E+03  6.83730E+03  1.04895E+04 -2.37455E+03  1.28540E+04 -1.27872E+04  9.59976E+03
 -1.51919E+04 -2.57818E+03 -1.01584E+04 -1.16956E+04 -1.28572E+03 -1.73384E+04  1.00080E+04 -1.71427E+04
  1.75349E+04 -8.53121E+03  2.10910E+04  2.69912E+03  1.44114E+04  1.51620E+04  2.01923E+03  2.02930E+04
 -8.21169E+03  1.53458E+04 -1.12928E+04  4.77474E+03 -8.21273E+03 -1.75095E+03 -3.63855E+03 -3.70843E+03
 -1.71019E+03  5.10610E+02 -2.32026E+03  3.63183E+03 -6.10678E+03  2.94663E+03 -1.14038E+04 -1.91899E+03
 -8.29195E+03 -1.12075E+04 -3.64849E+02 -1.65032E+04  1.01649E+04 -1.49258E+04  1.60890E+04 -5.42570E+03
  1.65655E+04  7.56678E+03  7.43261E+03  1.40792E+04 -3.45974E+03  1.70124E+04 -1.20108E+04  1.02748E+04
 -1.45116E+04 -5.57245E+02 -1.15040E+04 -9.27037E+03 -1.48739E+03 -1.35226E+04  6.96281E+03 -1.06900E+04
  9.95759E+03 -2.51347E+03  6.61720E+03  3.19058E+03  2.68080E+03  5.61578E+03  1.72273E+03  2.75809E+03
  3.35536E+03  8.50037E+02  3.54147E+03  2.53481E+03  4.66487E+03  5.14841E+03  4.20077E+03  8.36130E+03
 -4.51515E+03  1.38306E+04 -1.19331E+04  1.31108E+04 -1.65889E+04  3.19880E+03 -1.73406E+04 -6.69481E+03
 -8.03314E+03 -1.70889E+04  2.64699E+03 -1.87504E+04  9.73847E+03 -1.17534E+04  1.38518E+04 -3.65572E+03
  1.09363E+04  6.63316E+03  2.85420E+03  9.93714E+03 -5.17163E+03  6.65795E+03 -6.96932E+03 -5.66400E+02
 -3.11705E+03 -7.51944E+03  3.25355E+03 -7.44053E+03  7.24680E+03 -3.86872E+03  7.09996E+03  1.31762E+03
  3.52948E+03  3.71738E+03  1.28178E+03  2.66540E+03 -9.90946E+02  2.19544E+03  1.98347E+03 -5.04473E+02
  2.75839E+03 -6.80054E+02  7.16107E+03  3.16943E+03  3.86614E+03  8.80285E+03 -1.35678E+03  1.11417E+04
 -7.68676E+03  7.27004E+03 -1.12774E+04  2.65236E+03 -8.49645E+03 -4.49249E+03 -4.10994E+03 -6.86198E+03
  3.61477E+02 -6.71119E+03  4.28185E+03 -2.82935E+03  2.89166E+03  3.07605E+03 -2.14601E+03  4.65012E+03
 -6.66272E+03  3.77047E+03 -8.47539E+03 -4.20490E+03 -5.32294E+03 -8.37025E+03  1.36309E+03 -9.49745E+03
  5.48394E+03 -5.29583E+03  6.78891E+03 -3.26491E+02  5.42248E+03  2.82772E+03  1.18219E+03  4.86355E+03
 -3.20675E+03  1.66429E+03 -3.75617E+03 -2.64297E+03  1.00390E+03 -7.63733E+03  8.17735E+03 -6.41537E+03
  1.02275E+04  4.09393E+02  1.05747E+04  8.07442E+03  4.30670E+03  1.15658E+04 -3.92518E+03  1.07142E+04
 -9.61149E+03  4.41704E+03 -9.75780E+03 -1.91874E+03 -5.20336E+03 -7.83207E+03  1.61307E+03 -6.72088E+03
  7.18690E+03 -3.83546E+03  5.84455E+03  3.36655E+03  1.45643E+03  6.02171E+03 -1.91679E+03  5.28026E+03
 -2.56624E+03  2.98694E+03 -2.19765E+03  5.49057E+02 -1.95596E+03  1.23489E+03 -1.26982E+03  2.73759E+03
 -2.97854E+03  4.47596E+03 -8.41619E+03  3.64647E+03 -1.18003E+04  5.46695E+02 -1.32206E+04 -8.10057E+03
 -7.36208E+03 -1.58667E+04  3.95531E+03 -1.74212E+04  1.11457E+04 -1.39030E+04  1.67504E+04 -5.08149E+03
  1.57597E+04  3.27869E+03  1.06400E+04  1.11438E+04  6.44616E+02  1.22218E+04 -5.45906E+03  9.09546E+03
 -6.21207E+03  3.09174E+03 -4.48652E+03 -1.90202E+03 -9.42459E+02 -8.55138E+02 -7.11799E+02  3.59377E+02
 -2.18015E+03  4.48600E+02 -2.35737E+03 -8.47773E+02 -3.67171E+02 -3.74853E+03 -3.42513E+02 -4.75239E+03
  5.24446E+03 -3.85053E+03  7.10170E+03  2.47014E+02  9.11866E+03  6.41290E+03  2.83232E+03  1.23960E+04
 -5.43145E+03  1.33153E+04 -1.37489E+04  8.65413E+03 -1.50372E+04 -9.35112E+02 -1.11790E+04 -9.12659E+03
 -4.93488E+03 -1.23167E+04  3.21063E+03 -1.12183E+04  7.50157E+03 -6.44547E+03  8.50152E+03  1.91558E+02
  3.14735E+03  3.99904E+03 -9.90417E+02  3.65982E+03 -3.24394E+03  5.43760E+00  3.70311E+02 -3.36664E+03
  3.22382E+03 -9.07581E+02  4.62556E+03  1.58765E+03  3.50000E+03  5.70713E+03  2.26958E+02  6.33449E+03
 -5.71342E+03  5.25263E+03 -7.31500E+03  1.64552E+02 -7.16863E+03 -5.95402E+03 -1.35040E+03 -1.09932E+04
  5.72417E+03 -8.52550E+03  9.47327E+03 -3.42655E+03  9.62557E+03  1.52882E+03  5.23855E+03  7.80410E+03
  3.04478E+02  8.06009E+03 -2.97561E+03  6.29004E+03 -4.56536E+03  3.77445E+03 -4.54125E+03  1.00372E+03
 -2.04783E+03  6.00684E+02 -1.96987E+03  1.29730E+03 -3.08853E+03  1.90421E+03 -6.85803E+03 -1.07150E+03
 -6.01021E+03 -3.33639E+03 -1.60184E+03 -8.09876E+03  3.71738E+03 -8.63658E+03  7.56322E+03 -4.14481E+03
  7.80450E+03  9.33067E+02  4.59468E+03  5.84895E+03 -6.30458E+02  7.87016E+03 -6.37977E+03  5.86935E+03
