 $NMID ID='MM_0lb_SNR400_18hz_g40_11.RAW', FMTDAT='(8E13.5)'
 TRAMP=1., VOLUME=1. $END
  3.10185E+05  4.73933E+02  3.37037E+05  2.50675E+05  8.42983E+04  3.37148E+05 -1.32525E+05  2.50806E+05
 -1.89759E+05  8.25695E+04 -1.10701E+05 -3.26666E+04  8.69007E+02 -5.00829E+04  5.44723E+04  2.93995E+02
  3.48476E+04  5.29816E+04 -1.63916E+04  7.52797E+04 -6.03640E+04  6.24234E+04 -8.29486E+04  3.16203E+04
 -7.98538E+04 -1.13465E+04 -5.66059E+04 -4.93879E+04 -1.47789E+04 -6.81710E+04  2.71597E+04 -4.38004E+04
  3.87757E+04  4.12418E+03  1.50177E+04  4.73075E+04 -3.41218E+04  4.63060E+04 -6.50737E+04 -7.94882E+02
 -5.15310E+04 -5.58111E+04 -6.03028E+03 -7.51363E+04  3.28640E+04 -5.28578E+04  4.64866E+04 -1.61426E+04
  4.14513E+04  1.09721E+04  3.12923E+04  2.44986E+04  1.58649E+04  2.84426E+04 -4.70744E+03  2.66416E+04
 -2.14896E+04  1.26946E+04 -1.90224E+04 -3.98226E+03  4.30487E+03 -7.03758E+03  2.09813E+04  1.08491E+04
  7.68838E+03  3.27652E+04 -3.07264E+04  3.41175E+04 -6.09344E+04  2.65286E+03 -5.52715E+04 -4.06172E+04
 -1.26387E+04 -6.02748E+04  3.76037E+04 -4.33668E+04  5.47938E+04 -2.28589E+03  3.19600E+04  3.04094E+04
 -6.36946E+03  3.25150E+04 -2.85196E+04  1.33236E+04 -2.71823E+04 -5.40174E+03 -1.42796E+04 -1.02521E+04
 -7.05154E+03 -1.16581E+04 -7.63113E+02 -1.63154E+04  7.09272E+03 -2.27005E+04  1.48513E+04 -1.40300E+04
  1.28230E+04  4.35790E+03 -5.49029E+03  1.32948E+04 -1.91390E+04 -1.94291E+03 -8.21150E+03 -2.97140E+04
  2.08753E+04 -4.05581E+04  4.46278E+04 -1.85657E+04  4.21157E+04  1.78311E+04  1.43815E+04  4.12185E+04
 -1.56970E+04  3.11112E+04 -2.33044E+04  7.34695E+02 -8.43445E+03 -2.64451E+04  2.04598E+04 -3.11791E+04
  3.78706E+04 -7.31092E+03  3.12686E+04  2.26348E+04  1.54910E+04  4.27241E+04 -7.43075E+03  4.49083E+04
 -2.83905E+04  2.92853E+04 -3.71418E+04  8.66356E+03 -3.78710E+04 -1.51933E+04 -2.12087E+04 -3.39578E+04
  6.70016E+03 -3.40148E+04  2.85483E+04 -1.21871E+04  2.64752E+04  1.06937E+04  2.94212E+03  1.75169E+04
 -1.29545E+04  7.06425E+03 -9.74111E+03 -8.06251E+03  6.05780E+03 -1.06848E+04  1.73735E+04  6.48621E+03
  1.25820E+04  2.23659E+04 -6.41366E+03  2.30947E+04 -2.17874E+04  9.16229E+03 -2.47582E+04 -6.29537E+03
 -1.65915E+04 -1.64199E+04 -5.80603E+03 -1.65525E+04  4.14474E+03 -1.41453E+04  1.26474E+04 -1.40956E+04
  2.09618E+04 -1.16056E+04  2.73073E+04  1.20658E+03  2.13467E+04  1.59651E+04  3.84355E+03  3.22696E+04
 -1.60266E+04  2.70289E+04 -2.57006E+04  8.87243E+03 -1.98532E+04 -1.04220E+04 -4.13267E+03 -1.39104E+04
  2.70912E+03 -3.92479E+03 -2.80953E+03  5.01882E+03 -1.26188E+04  5.07010E+03 -1.29206E+04 -4.80708E+03
 -8.28245E+03 -1.51655E+04  4.74040E+03 -1.87950E+04  1.28904E+04 -1.44446E+04  1.43859E+04 -1.31916E+03
  9.03271E+03  1.06314E+04 -9.49422E+02  1.55527E+04 -9.74698E+03  8.40891E+03 -1.51247E+04 -3.35951E+03
 -1.14283E+04 -1.36426E+04 -1.16521E+03 -1.84837E+04  8.64351E+03 -1.53051E+04  1.60913E+04 -7.16235E+03
  1.49046E+04  4.17052E+02  1.00778E+04  4.21165E+03  5.19828E+03  6.71055E+02  7.77733E+03 -1.21635E+03
  1.33531E+04  2.60872E+03  1.46795E+04  1.20466E+04  9.26068E+03  2.44966E+04 -3.25414E+03  2.58705E+04
 -1.59894E+04  1.96129E+04 -2.42516E+04  9.60269E+03 -2.42777E+04 -2.03009E+03 -2.14327E+04 -1.43275E+04
 -9.57746E+03 -2.02981E+04  6.54414E+03 -1.89362E+04  1.61404E+04 -1.03589E+04  1.57238E+04  3.59246E+03
  6.46156E+03  1.13546E+04 -6.64042E+03  1.08423E+04 -1.31181E+04  2.27306E+03 -9.76459E+03 -7.72235E+03
 -1.11447E+02 -1.25967E+04  5.96289E+03 -9.37793E+03  7.49964E+03 -1.06158E+03  1.23994E+03  5.05399E+03
 -5.57579E+03  1.53741E+03 -3.76037E+03 -4.29192E+03  3.38326E+02 -1.00832E+04  7.56628E+03 -9.69000E+03
  1.24380E+04 -4.26114E+03  1.18768E+04  2.83251E+03  9.84785E+03  9.54228E+03  4.61599E+03  1.35537E+04
 -1.26198E+03  1.56326E+04 -9.67181E+03  9.98190E+03 -1.06992E+04  3.31561E+03 -7.99034E+03 -2.11932E+03
 -4.32399E+03 -3.14360E+03 -1.42910E+03  1.43625E+03 -1.38391E+03  1.79990E+03 -3.60475E+03  3.46928E+03
 -7.70265E+03  4.85262E+01 -9.35081E+03 -7.16942E+03 -2.78594E+03 -1.22161E+04  3.73096E+03 -8.22522E+03
  7.14479E+03 -3.58680E+03  5.17340E+03  1.95561E+03  6.43964E+02  3.25885E+03 -3.25587E+03 -7.52349E+01
 -3.21756E+03 -5.13369E+03 -1.16046E+03 -7.04967E+03  3.65022E+03 -8.25702E+03  9.22753E+03 -3.54119E+03
  1.20670E+04  3.98592E+02  8.37078E+03  5.94117E+03  1.50232E+03  8.69624E+03 -5.21022E+03  8.54482E+03
 -6.89507E+03  2.31139E+03 -3.73310E+03 -1.11924E+03  1.66497E+03 -1.80690E+03  4.80755E+03 -7.68812E+02
  4.37671E+03  2.94620E+03  1.42282E+03  6.79634E+03 -4.69962E+03  6.44855E+03 -7.71544E+03  1.54806E+03
 -4.48673E+03 -3.66606E+03 -6.98497E+00 -6.48146E+03  3.23341E+03 -3.19544E+03  3.75009E+03  1.13809E+03
  5.69826E+02  3.36445E+03 -3.95794E+03  4.79306E+03 -4.83803E+03  2.47668E+03 -4.65337E+03 -1.15138E+03
 -3.09709E+03 -5.62956E+03  1.21101E+03 -7.41577E+03  5.92157E+03 -4.37521E+03  6.61060E+03  9.63742E+02
  4.87503E+03  5.36619E+03  2.18146E+01  6.95420E+03 -5.39148E+03  3.97921E+03 -5.65862E+03 -5.60897E+02
 -5.76626E+03 -5.52539E+03 -1.14842E+03 -5.20618E+03  2.75781E+03 -5.13051E+03  3.23702E+03 -3.37046E+03
  2.96407E+03  4.23042E+02  1.82792E+01  1.38162E+03  4.15138E+02 -2.73753E+02 -1.91777E+02 -1.61024E+03
  3.49895E+03 -6.92049E+02  5.43879E+03  5.49164E+02  5.36085E+03  2.94427E+03  5.11088E+03  6.52902E+03
 -9.98442E+02  8.38901E+03 -7.77871E+03  6.74330E+03 -9.92658E+03  1.24546E+03 -7.89048E+03 -2.22110E+03
 -4.64061E+03 -6.62406E+03 -2.56119E+02 -5.56401E+03  2.23600E+03 -2.43486E+03  1.92637E+03 -2.24664E+03
  1.18877E+03 -1.59405E+03  1.83837E+03 -2.22399E+03  4.01852E+03 -9.93743E+02  3.80418E+03  4.38739E+02
  4.83685E+03  1.49484E+03  7.52937E+02  3.77088E+03 -1.11041E+03  2.75561E+03 -4.43323E+03  2.89721E+03
 -5.33854E+03 -1.08757E+03 -1.98110E+03 -3.70756E+03  7.77963E+02 -4.86712E+03  3.43727E+03 -5.98393E+03
  5.06241E+03 -3.09822E+03  6.42117E+03  4.00810E+02  4.91957E+03  4.17471E+03  1.36968E+03  5.93964E+03
 -1.97255E+03  5.66096E+03 -3.41300E+03  2.09748E+03 -2.22136E+03 -9.53766E+02 -2.33031E+02 -2.95108E+01
 -4.36195E+02  3.74961E+02 -8.41276E+02  2.08621E+03 -2.13324E+03  3.55900E+02 -4.06156E+03 -1.88452E+02
 -1.66005E+03 -4.40103E+03  9.49121E+02 -4.32115E+03  3.11756E+03 -4.21277E+03  3.58978E+03 -9.06345E+02
  3.81915E+03  2.11170E+03  2.42153E+03  3.91606E+03 -5.01280E+02  4.61397E+03 -2.33312E+03  2.62014E+03
 -3.74619E+03  5.25618E+02 -3.26370E+03 -2.84968E+03 -2.47661E+02 -3.69389E+03  1.86398E+03 -2.62741E+03
  2.50267E+03 -1.60454E+03  1.53765E+03  3.64671E+02  1.10474E+03  1.41910E+03  8.82073E+02 -2.15047E+02
  1.99779E+03  2.34235E+02  1.73388E+03  1.60810E+03  1.61692E+03  3.11428E+03  1.29190E+03  1.34341E+03
 -9.93001E+02  2.72825E+03 -2.63604E+03  3.83534E+03 -3.06971E+03  1.26285E+03 -4.57004E+03 -5.27248E+02
 -2.14212E+03 -3.42310E+03  1.94729E+02 -4.88226E+03  2.32037E+03 -3.19301E+03  3.63266E+03 -8.11422E+02
  2.63389E+03  1.82891E+03  7.13788E+02  2.34551E+03 -3.73869E+02  1.64841E+03 -1.15038E+03 -5.10930E+02
 -4.06831E+02 -1.23975E+03  1.07044E+03 -1.75851E+03  1.12099E+03 -1.06403E+03  1.22522E+03  4.37347E+02
  7.78498E+02 -1.92259E+02  7.96560E+02 -3.69525E+02 -7.52146E+02  4.82612E+02  1.24966E+03  6.10475E+01
  4.11770E+01 -2.91234E+02  1.93568E+03  7.85338E+02  9.04064E+02  2.71610E+03 -7.74643E+02  2.77610E+03
 -1.14620E+03  1.44053E+03 -2.43375E+03  8.13285E+02 -2.40869E+03 -1.11763E+03 -4.23487E+02 -1.13776E+03
  5.57851E+02 -1.53803E+03  1.29823E+03 -6.12961E+02  3.12864E+02  1.20123E+03 -7.72601E+02  1.36793E+03
 -1.80115E+03  1.18459E+03 -1.44743E+03 -1.32332E+03 -8.65290E+02 -2.08335E+03  3.67374E+02 -2.20060E+03
  7.48700E+02 -8.86267E+02  1.00242E+03  4.32470E+02  1.12230E+03 -1.63546E+01  3.53773E+02  1.39819E+03
 -7.58442E+02 -6.58860E+01 -1.11523E+03 -3.46114E+02  3.87723E+02 -7.85960E+02  2.12862E+03 -1.33846E+03
  8.54143E+02 -1.54301E+02  2.84729E+03  7.95566E+02  1.40096E+03  2.15639E+03 -1.26404E+02  1.81275E+03
 -1.87691E+03  4.04900E+02 -1.30975E+03  3.91462E+02 -2.73194E+02 -1.63898E+03  3.86571E+02 -1.01997E+03
  1.73209E+03 -7.12380E+02  7.38694E+02  9.45815E+02  3.87257E+02  1.99564E+03  2.36399E+02  7.55814E+02
 -6.38847E+02  1.11439E+03 -7.10022E+02  3.90339E+02  2.03667E+01  4.34448E+02 -1.05838E+03  8.73908E+02
 -3.93118E+02  7.88158E+02 -1.64338E+03  2.84490E+02 -1.56756E+03  9.40755E+01 -2.58553E+03 -1.28200E+03
 -6.48913E+02 -2.66909E+03  5.89991E+02 -3.13622E+03  1.35549E+03 -2.80681E+03  3.12872E+03 -1.20015E+03
  2.42647E+03 -8.79102E+01  1.22334E+03  1.26919E+03 -6.17629E+02  1.59731E+03 -8.93227E+02  1.31344E+03
 -1.20015E+03  9.25508E+02 -9.97760E+02 -5.25879E+02 -3.72691E+02  6.20646E+02 -6.90379E+02  1.19739E+02
 -1.42331E+03 -1.84165E+02 -4.61223E+02  2.38073E+02  4.65639E+02 -1.17082E+03 -2.90993E+02 -1.37756E+03
  1.71576E+03 -3.39197E+02  2.81221E+02  1.13781E+02  1.26992E+03  1.16509E+03 -4.31012E+02  1.45053E+03
 -9.49317E+02  2.43980E+03 -1.22062E+03  1.36281E+03 -2.04501E+03 -1.73592E+02 -1.27428E+03 -6.92688E+02
 -1.07966E+03 -1.58096E+03  3.27463E+02 -1.59471E+03  1.02419E+03 -4.41751E+02  9.95749E+02  4.52234E+02
  3.05432E+02  5.54926E+02  2.66727E+02  6.31840E+02 -3.14804E+02 -3.40883E+02  1.59437E+02 -1.72044E+02
  9.61763E+02 -8.48491E+01  1.06626E+02  4.60548E+02  1.18561E+02  8.35299E+02  4.47760E+02  6.09307E+02
 -7.68643E+02  5.19260E+01 -9.27322E+02  3.65190E+02 -3.99761E+02 -9.03086E+01 -2.02618E+02 -1.24545E+03
  2.87446E+02 -5.90574E+02  8.47796E+02 -3.55442E+02  1.23586E+03 -7.25190E+02  6.77260E+02  7.01642E+02
  5.42177E+02  6.20891E+02  3.98094E+01  2.68479E+02 -7.71913E+02  6.76969E+02 -4.46865E+02  3.08070E+02
 -8.99217E+01  6.43100E+01 -4.02458E+02  1.61478E+02 -9.80878E+02 -4.53383E+02 -7.58486E+02 -2.72931E+02
 -9.79020E+02  2.70010E+02  3.30368E+01 -1.17903E+03  5.67640E+02 -2.04927E+03  7.96276E+02 -3.36086E+02
  2.53045E+02  1.55712E+02 -1.45246E+01 -9.23426E+01 -3.45778E+02  1.27424E+03 -3.41985E+02  4.80298E+02
