 $NMID ID='MM_0lb_SNR400_19hz_g60_39.RAW', FMTDAT='(8E13.5)'
 TRAMP=1., VOLUME=1. $END
  3.09915E+05  4.33599E+02  3.37041E+05  2.50037E+05  8.45358E+04  3.37557E+05 -1.32524E+05  2.51218E+05
 -1.90357E+05  8.27838E+04 -1.11279E+05 -3.27288E+04  1.22960E+03 -5.05013E+04  5.39847E+04  3.77944E+02
  3.52500E+04  5.31751E+04 -1.68538E+04  7.49896E+04 -6.04480E+04  6.29131E+04 -8.36054E+04  3.21761E+04
 -7.99868E+04 -1.13170E+04 -5.61288E+04 -5.09379E+04 -1.49812E+04 -6.91174E+04  2.70113E+04 -4.57915E+04
  3.95837E+04  3.69704E+03  1.54051E+04  4.76363E+04 -3.46327E+04  4.63789E+04 -6.68112E+04 -6.19254E+02
 -5.23185E+04 -5.60755E+04 -6.53377E+03 -7.63284E+04  3.40004E+04 -5.39463E+04  4.74115E+04 -1.64385E+04
  4.23000E+04  1.14818E+04  3.15340E+04  2.48806E+04  1.57433E+04  2.89084E+04 -4.89914E+03  2.68160E+04
 -2.16871E+04  1.27182E+04 -1.89878E+04 -4.42487E+03  4.72773E+03 -7.56257E+03  2.17992E+04  1.14229E+04
  7.13378E+03  3.44054E+04 -3.08752E+04  3.50623E+04 -6.21427E+04  1.55460E+03 -5.58245E+04 -4.18050E+04
 -1.18983E+04 -6.21980E+04  3.94812E+04 -4.41851E+04  5.68630E+04 -2.15699E+03  3.31219E+04  3.12395E+04
 -5.80110E+03  3.46416E+04 -2.91893E+04  1.44670E+04 -2.90818E+04 -5.01451E+03 -1.56835E+04 -1.12443E+04
 -7.72827E+03 -1.25226E+04 -8.15968E+02 -1.68985E+04  7.50507E+03 -2.26721E+04  1.53396E+04 -1.35705E+04
  1.21986E+04  4.67562E+03 -6.70518E+03  1.26771E+04 -2.03408E+04 -3.53527E+03 -8.33988E+03 -3.17695E+04
  2.16960E+04 -4.20929E+04  4.66157E+04 -1.89635E+04  4.30362E+04  1.89192E+04  1.49743E+04  4.27175E+04
 -1.54375E+04  3.21680E+04 -2.39978E+04  1.39396E+03 -9.26461E+03 -2.67924E+04  2.08319E+04 -3.22081E+04
  3.92456E+04 -7.67695E+03  3.29851E+04  2.35073E+04  1.64971E+04  4.42017E+04 -8.08184E+03  4.70947E+04
 -2.91808E+04  3.12688E+04 -4.00030E+04  9.21029E+03 -4.00126E+04 -1.60088E+04 -2.22644E+04 -3.61262E+04
  7.39747E+03 -3.55830E+04  2.99328E+04 -1.39800E+04  2.77114E+04  1.10222E+04  2.90378E+03  1.83167E+04
 -1.34676E+04  7.65548E+03 -9.21375E+03 -7.54715E+03  5.95295E+03 -1.05874E+04  1.80358E+04  6.81969E+03
  1.27615E+04  2.12757E+04 -6.22039E+03  2.38724E+04 -2.22547E+04  1.00180E+04 -2.58412E+04 -5.83701E+03
 -1.81827E+04 -1.64653E+04 -6.59168E+03 -1.77181E+04  3.75046E+03 -1.64255E+04  1.37505E+04 -1.52725E+04
  2.26387E+04 -1.19594E+04  2.92240E+04  1.69540E+03  2.22286E+04  1.72447E+04  3.99647E+03  3.36877E+04
 -1.59670E+04  2.83776E+04 -2.62392E+04  9.78140E+03 -1.97185E+04 -1.04669E+04 -4.18989E+03 -1.34579E+04
  2.37689E+03 -3.72933E+03 -3.51735E+03  5.86121E+03 -1.39435E+04  5.25353E+03 -1.42116E+04 -5.17719E+03
 -9.05484E+03 -1.63059E+04  4.67122E+03 -2.03707E+04  1.29902E+04 -1.46175E+04  1.63025E+04 -1.98509E+03
  9.24064E+03  1.13090E+04 -1.24294E+03  1.63812E+04 -1.08457E+04  9.44877E+03 -1.66361E+04 -3.12735E+03
 -1.24631E+04 -1.52557E+04 -1.70329E+03 -1.99753E+04  8.55060E+03 -1.64195E+04  1.67056E+04 -7.81863E+03
  1.53205E+04  9.10474E+02  1.07313E+04  4.22454E+03  6.23155E+03  3.86855E+02  8.53802E+03 -1.44753E+03
  1.48595E+04  2.44258E+03  1.56440E+04  1.33758E+04  9.91114E+03  2.56987E+04 -3.00919E+03  2.80193E+04
 -1.74791E+04  2.14754E+04 -2.57486E+04  1.06669E+04 -2.61503E+04 -2.00318E+03 -2.29305E+04 -1.53420E+04
 -1.05918E+04 -2.16214E+04  7.51526E+03 -1.93247E+04  1.79155E+04 -1.10392E+04  1.63636E+04  4.07641E+03
  6.83573E+03  1.17534E+04 -7.17051E+03  1.12229E+04 -1.39094E+04  2.51917E+03 -1.08780E+04 -8.36514E+03
 -3.94503E+02 -1.25790E+04  6.61256E+03 -1.02795E+04  7.68793E+03 -1.14065E+03  1.28139E+03  5.05341E+03
 -6.07181E+03  1.40785E+03 -4.50346E+03 -4.45867E+03  4.29711E+02 -1.13381E+04  7.66356E+03 -1.06318E+04
  1.32747E+04 -5.01841E+03  1.22451E+04  2.94584E+03  1.15126E+04  1.00755E+04  5.14171E+03  1.50914E+04
 -1.88654E+03  1.68920E+04 -1.01015E+04  1.08710E+04 -1.13042E+04  2.93760E+03 -8.93165E+03 -2.45659E+03
 -5.00982E+03 -3.72073E+03 -6.44916E+02  6.69515E+02 -2.48821E+03  2.22606E+03 -2.97134E+03  4.07236E+03
 -7.78378E+03 -6.20694E+02 -8.92665E+03 -7.80154E+03 -2.95698E+03 -1.25257E+04  4.06693E+03 -8.83538E+03
  7.75036E+03 -3.91244E+03  5.12285E+03  1.88383E+03  3.70944E+02  2.80121E+03 -4.04664E+03 -3.99421E+02
 -2.88165E+03 -5.91268E+03 -6.51214E+02 -7.69509E+03  3.94911E+03 -8.00741E+03  1.08573E+04 -4.14648E+03
  1.19568E+04  9.09688E+02  9.01409E+03  6.45936E+03  1.97486E+03  8.96749E+03 -5.73052E+03  8.24146E+03
 -6.80088E+03  2.29800E+03 -3.52097E+03 -1.66643E+03  1.18674E+03 -1.37881E+03  4.34865E+03 -1.52543E+03
  4.44518E+03  3.47744E+03  1.71596E+03  6.71858E+03 -4.47288E+03  6.42425E+03 -8.33911E+03  1.30423E+03
 -5.11711E+03 -3.81135E+03  4.62815E+02 -7.14957E+03  4.08584E+03 -3.33482E+03  3.55467E+03  1.71278E+03
  4.03161E+02  3.68083E+03 -4.33595E+03  4.17832E+03 -4.91960E+03  2.78464E+03 -4.59042E+03 -1.42710E+03
 -3.57964E+03 -6.32308E+03  1.00060E+03 -7.30582E+03  6.40533E+03 -4.67369E+03  7.24670E+03  8.68166E+02
  4.64585E+03  5.23246E+03  2.96161E+02  6.98862E+03 -5.59692E+03  4.40269E+03 -5.57610E+03 -6.82072E+02
 -5.56237E+03 -5.23995E+03 -1.43212E+03 -5.02008E+03  2.21686E+03 -4.55071E+03  3.40013E+03 -2.59217E+03
  2.80249E+03  1.25032E+02  1.67040E+01  8.91188E+02  7.66801E+02 -6.99762E+02  2.74687E+02 -1.84459E+03
  3.74618E+03 -1.08863E+03  5.78878E+03  6.51113E+02  5.70276E+03  3.14824E+03  5.30845E+03  7.38181E+03
 -1.26414E+03  8.61187E+03 -7.94785E+03  6.36816E+03 -1.00365E+04  1.32946E+03 -8.15036E+03 -2.75454E+03
 -4.02862E+03 -6.30821E+03 -6.40176E+02 -5.33252E+03  2.25314E+03 -2.25991E+03  1.58871E+03 -2.64372E+03
  9.71492E+02 -1.66664E+03  1.72469E+03 -2.21605E+03  3.30732E+03 -1.45013E+03  3.60264E+03  1.04749E+02
  4.18732E+03  9.90402E+02  2.15516E+03  3.02925E+03 -1.49685E+03  2.80102E+03 -4.97330E+03  2.54738E+03
 -4.60834E+03 -1.08778E+03 -1.17380E+03 -3.52830E+03  6.07809E+02 -4.74550E+03  3.02785E+03 -5.00392E+03
  4.95775E+03 -3.32966E+03  7.28611E+03  2.16621E+02  5.28991E+03  4.11993E+03  8.36405E+02  5.76112E+03
 -1.59407E+03  5.95246E+03 -3.32525E+03  2.16809E+03 -1.91136E+03 -1.35233E+03 -9.78804E+02 -5.56628E+02
 -6.24479E+02  3.62779E+02 -1.33557E+03  2.64919E+03 -2.93698E+03  1.10916E+03 -4.35828E+03 -5.07702E+02
 -1.79554E+03 -4.34241E+03  8.74415E+02 -4.95223E+03  2.94885E+03 -4.58684E+03  3.25896E+03 -1.00012E+03
  3.84443E+03  2.07252E+03  1.47428E+03  3.10485E+03 -5.70882E+02  4.44586E+03 -2.55088E+03  2.79115E+03
 -3.79555E+03  9.65612E+02 -2.74043E+03 -2.41972E+03 -4.57977E+02 -2.91293E+03  1.13733E+03 -1.97823E+03
  2.17318E+03 -9.03764E+02  1.28512E+03  1.89255E+02  1.09454E+02  1.67928E+03  9.93070E+02  3.56258E+02
  2.00310E+03  1.60779E+02  1.05705E+03  1.12546E+03  9.79015E+02  2.19185E+03  1.64061E+03  1.87725E+03
 -1.70906E+03  2.28216E+03 -1.95899E+03  3.62998E+03 -2.16904E+03  7.81565E+02 -3.94662E+03 -6.32710E+02
 -1.90013E+03 -3.40054E+03  7.25515E+02 -4.07168E+03  1.92046E+03 -2.29207E+03  2.78638E+03 -7.83250E+02
  2.19848E+03  1.19136E+03  4.39908E+02  2.13360E+03 -9.59935E+02  1.02830E+03 -9.37566E+02 -6.63755E+02
 -1.54635E+02 -1.24168E+03  1.41113E+03 -1.92728E+03  1.40303E+03 -1.56219E+03  8.42659E+02  1.80738E+02
  6.81996E+02  9.32232E+01  6.36365E+02 -5.86461E+02 -2.06719E+02  5.81810E+02  1.11109E+03 -2.89280E+02
 -2.28427E+02  1.48882E+02  1.74497E+03  7.92597E+02  6.79816E+02  2.04984E+03 -3.35784E+02  3.30425E+03
 -1.22046E+03  7.29779E+02 -1.57865E+03  1.37482E+02 -2.45047E+03 -3.41627E+02  1.14042E+01 -5.78903E+02
  2.36763E+02 -5.77003E+02  8.26469E+02 -7.49125E+02 -6.08421E+01  1.56884E+03 -4.87060E+02  8.42412E+02
 -9.74201E+02  1.03409E+03 -1.09430E+03 -1.14769E+03 -1.13594E+03 -2.29761E+03 -2.82262E+02 -1.32423E+03
  4.05527E+02 -2.29873E+02  2.51878E+02  1.31802E+02  1.80800E+03 -7.02264E+02  4.71405E+02  1.03341E+03
 -4.51786E+02  6.81969E+01 -2.82885E+02 -5.31037E+02  5.65786E+02 -1.07220E+02  1.35892E+03 -6.78329E+02
  7.33456E+02  2.07740E+02  2.68230E+03  5.66644E+02  1.14775E+03  1.37191E+03 -1.51339E+02  1.32394E+03
 -1.38342E+03 -2.36872E+02 -1.41827E+03 -1.55977E+02 -1.31168E+03 -1.28171E+03  3.39526E+02  4.79968E+01
  1.34912E+03 -7.37168E+02  5.36953E+02  4.78364E+02  1.81275E+02  1.34489E+03  6.32014E+02  1.08856E+03
  5.71384E+02  1.30956E+03 -6.16310E+02 -5.13698E+01 -3.78975E+01  6.17909E+02 -8.47266E+02  8.59991E+02
 -2.88762E+02  1.38083E+03 -1.85122E+03  2.93949E+02 -1.80456E+03  3.07935E+02 -2.14988E+03 -7.73159E+02
 -1.32144E+03 -1.96274E+03  4.96398E+02 -2.71901E+03  8.37913E+02 -2.08454E+03  2.82796E+03 -5.09878E+02
  1.82103E+03  6.01230E+02  1.54519E+03  1.54176E+03 -6.59971E+02  1.21656E+03 -6.87390E+02  1.68514E+03
 -6.24304E+02  7.11105E+02 -4.89532E+02  9.52493E+01 -6.35624E+02 -1.24799E+01 -7.52839E+02  3.82032E+02
 -5.29030E+02  4.32732E+02 -6.48134E+02  3.03939E+02  1.06678E+02 -4.76451E+02 -2.57689E+02 -1.13208E+02
  8.59839E+02 -7.00696E+02  3.29850E+01 -1.46313E+02  8.54621E+02  6.57507E+02 -7.31299E+02  9.68240E+02
 -9.74662E+02  2.04744E+03 -1.80765E+03  9.15505E+02 -1.61703E+03  5.54291E+02 -1.01986E+03 -1.39670E+03
 -1.18479E+03 -1.30836E+03  1.30917E+02 -9.41233E+02  4.94417E+02 -9.28652E+02  3.29748E+02  4.48002E+02
  6.50511E+02  2.67057E+02  2.00818E+02  6.61253E+01 -2.53036E+02  9.66096E+01 -5.03232E+02 -2.80399E-01
  4.66719E+02 -1.28485E+02 -1.17976E+02  7.20655E+02 -1.64151E+02  3.89738E+02  3.39586E+02  9.49249E+01
 -8.91295E+02  3.12973E+02  1.81875E+02  3.47221E+02  5.71779E+01 -2.21951E+02 -5.49001E+01 -1.18859E+03
  6.03948E+02 -4.54205E+02  3.62725E+02  3.69260E+02  6.24573E+02 -7.91033E+02  6.92555E+02  4.60799E+02
  1.98860E+02  4.92217E+02 -1.27567E+02  2.26094E+02 -1.65355E+02  6.08546E+02  2.10803E+02 -3.16413E+02
 -1.32354E+02  2.06204E+01 -6.08926E+02  3.19665E+02 -5.68867E+02 -1.28888E+02 -8.44075E+02 -3.74418E+02
 -1.14390E+03  4.21372E+02 -5.90719E+02 -5.83529E+02  5.22884E+02 -9.60390E+02  9.80685E+01  4.06785E+02
  4.95045E+02  7.37235E+01 -7.53541E+02 -2.92263E+02 -7.77582E+00  2.78797E+02 -2.54722E+02  4.91998E+02
