 $NMID ID='MM_0lb_SNR400_20hz_g55_21.RAW', FMTDAT='(8E13.5)'
 TRAMP=1., VOLUME=1. $END
  3.09780E+05  1.01941E+03  3.37322E+05  2.50568E+05  8.41043E+04  3.37265E+05 -1.32287E+05  2.50367E+05
 -1.89968E+05  8.24117E+04 -1.11262E+05 -3.27860E+04  1.79922E+03 -5.08560E+04  5.37911E+04  4.16203E+02
  3.52098E+04  5.28316E+04 -1.69421E+04  7.48509E+04 -6.04222E+04  6.31652E+04 -8.36165E+04  3.20125E+04
 -8.00654E+04 -1.14045E+04 -5.65761E+04 -4.98911E+04 -1.56162E+04 -6.81096E+04  2.71543E+04 -4.47516E+04
  3.93832E+04  4.08156E+03  1.52607E+04  4.76807E+04 -3.37456E+04  4.58778E+04 -6.54427E+04 -5.65083E+02
 -5.22716E+04 -5.57448E+04 -5.99338E+03 -7.53622E+04  3.30620E+04 -5.31769E+04  4.61680E+04 -1.66036E+04
  4.12295E+04  1.11344E+04  3.06355E+04  2.37777E+04  1.55602E+04  2.86819E+04 -4.55593E+03  2.71704E+04
 -2.14196E+04  1.30837E+04 -1.90427E+04 -3.94411E+03  4.29457E+03 -8.03360E+03  2.11557E+04  1.10005E+04
  7.54021E+03  3.40256E+04 -3.02176E+04  3.39277E+04 -6.09216E+04  2.44818E+03 -5.53117E+04 -4.15318E+04
 -1.20700E+04 -6.07744E+04  3.82702E+04 -4.34227E+04  5.59449E+04 -2.07282E+03  3.18601E+04  3.10172E+04
 -6.47156E+03  3.34017E+04 -2.81417E+04  1.36430E+04 -2.78447E+04 -5.04713E+03 -1.49040E+04 -1.01469E+04
 -7.14882E+03 -1.10745E+04 -6.53973E+02 -1.69345E+04  6.59277E+03 -2.29224E+04  1.48866E+04 -1.39189E+04
  1.19508E+04  4.54827E+03 -6.23831E+03  1.30640E+04 -1.90766E+04 -2.33720E+03 -8.56377E+03 -3.10211E+04
  2.07164E+04 -4.02427E+04  4.46858E+04 -1.81196E+04  4.19429E+04  1.85606E+04  1.42854E+04  4.19719E+04
 -1.51895E+04  3.08002E+04 -2.37636E+04  6.72774E+02 -8.34610E+03 -2.65232E+04  1.96388E+04 -3.09873E+04
  3.79388E+04 -7.57020E+03  3.18235E+04  2.23118E+04  1.51971E+04  4.21094E+04 -8.05689E+03  4.56142E+04
 -2.91716E+04  2.98020E+04 -3.77806E+04  8.42289E+03 -3.82551E+04 -1.46806E+04 -2.11435E+04 -3.43002E+04
  6.95445E+03 -3.40785E+04  2.94272E+04 -1.26596E+04  2.65787E+04  1.07375E+04  2.86662E+03  1.81611E+04
 -1.31510E+04  7.86391E+03 -9.57551E+03 -7.85016E+03  6.45383E+03 -9.98204E+03  1.72787E+04  6.31456E+03
  1.23547E+04  2.18272E+04 -6.58729E+03  2.35219E+04 -2.16284E+04  8.94676E+03 -2.49415E+04 -5.67218E+03
 -1.66272E+04 -1.59181E+04 -5.14540E+03 -1.67419E+04  3.94313E+03 -1.47948E+04  1.21879E+04 -1.44312E+04
  2.09329E+04 -1.15307E+04  2.81157E+04  6.56648E+02  2.11827E+04  1.65286E+04  4.13667E+03  3.21978E+04
 -1.60265E+04  2.77967E+04 -2.55383E+04  9.00178E+03 -1.97457E+04 -1.05283E+04 -3.77978E+03 -1.42642E+04
  2.91846E+03 -3.54258E+03 -2.39124E+03  4.99198E+03 -1.25113E+04  5.32524E+03 -1.32773E+04 -4.82039E+03
 -8.19579E+03 -1.55880E+04  4.67382E+03 -1.96358E+04  1.22072E+04 -1.37284E+04  1.44739E+04 -1.14181E+03
  9.00349E+03  1.01322E+04 -4.34829E+02  1.58296E+04 -1.00942E+04  8.93904E+03 -1.50539E+04 -3.46185E+03
 -1.14915E+04 -1.39505E+04 -1.57265E+03 -1.90383E+04  8.22436E+03 -1.46736E+04  1.61909E+04 -7.12588E+03
  1.42761E+04  3.44411E+02  1.05328E+04  3.63265E+03  5.22427E+03  1.07883E+03  7.98712E+03 -1.38712E+03
  1.31101E+04  2.37176E+03  1.44128E+04  1.20895E+04  8.04678E+03  2.46690E+04 -3.58011E+03  2.57204E+04
 -1.49071E+04  1.96279E+04 -2.36722E+04  9.54833E+03 -2.41282E+04 -1.52322E+03 -2.04156E+04 -1.33734E+04
 -9.95821E+03 -1.96798E+04  6.65415E+03 -1.84972E+04  1.62991E+04 -1.07162E+04  1.52572E+04  4.11711E+03
  6.40300E+03  1.07947E+04 -7.14389E+03  1.05364E+04 -1.29349E+04  2.57537E+03 -9.61190E+03 -8.01226E+03
  2.68250E+02 -1.24921E+04  6.08237E+03 -8.83828E+03  7.36962E+03 -1.26251E+03  8.18332E+02  4.87540E+03
 -5.69204E+03  1.00515E+03 -3.00522E+03 -4.40778E+03  6.25350E+02 -1.02265E+04  7.22826E+03 -9.14084E+03
  1.19952E+04 -4.53762E+03  1.17453E+04  3.23910E+03  9.43591E+03  8.94098E+03  4.35832E+03  1.38445E+04
 -1.68628E+03  1.49799E+04 -9.17341E+03  9.71840E+03 -1.04208E+04  2.99042E+03 -8.14261E+03 -1.50902E+03
 -4.75884E+03 -2.80559E+03 -4.75536E+02  1.46856E+03 -1.88613E+03  2.07356E+03 -3.56379E+03  3.65753E+03
 -7.63463E+03 -8.95159E+01 -8.06036E+03 -6.74471E+03 -3.18207E+03 -1.07220E+04  3.23193E+03 -7.96912E+03
  6.69264E+03 -3.22317E+03  5.03750E+03  2.10810E+03  6.97700E+02  2.80136E+03 -3.53622E+03 -3.16408E+02
 -3.35751E+03 -5.01129E+03 -7.50758E+02 -6.68649E+03  3.42384E+03 -7.49205E+03  9.54166E+03 -3.54022E+03
  1.08536E+04  1.31428E+02  8.19503E+03  6.01801E+03  1.50686E+03  8.30615E+03 -4.87967E+03  7.62207E+03
 -6.83495E+03  2.94301E+03 -3.12326E+03 -1.02792E+03  1.53997E+03 -1.46261E+03  4.56209E+03 -1.05136E+03
  3.97488E+03  2.76334E+03  7.77370E+02  6.14044E+03 -4.07718E+03  5.60681E+03 -7.82750E+03  1.64851E+03
 -4.50253E+03 -3.27101E+03  2.86481E+02 -5.88566E+03  2.97954E+03 -2.77290E+03  3.04119E+03  1.22271E+03
 -2.52472E+02  2.58740E+03 -3.43811E+03  4.51345E+03 -4.00284E+03  2.24129E+03 -3.44824E+03 -9.32651E+02
 -2.75638E+03 -4.83091E+03  1.02461E+03 -6.13587E+03  5.14015E+03 -4.50432E+03  5.67814E+03  1.09651E+03
  4.47653E+03  4.71341E+03  3.54844E+02  6.48553E+03 -5.06543E+03  3.65728E+03 -4.84391E+03 -4.47953E+02
 -5.23967E+03 -4.17763E+03 -1.32924E+03 -4.36696E+03  2.56546E+03 -4.35721E+03  2.45796E+03 -2.86599E+03
  2.61778E+03  5.49465E+02 -3.74207E+02  1.02601E+03  7.99394E+02  3.64562E+02  1.78908E+02 -1.55699E+03
  3.51403E+03 -6.95132E+02  4.62421E+03  9.99759E+01  4.76604E+03  2.64732E+03  5.42585E+03  6.06059E+03
 -1.17702E+03  7.42925E+03 -7.55572E+03  5.42679E+03 -9.14329E+03  5.29214E+02 -6.96237E+03 -2.24133E+03
 -3.74022E+03 -5.71302E+03 -4.82217E+02 -4.43481E+03  1.97657E+03 -2.03717E+03  1.85214E+03 -1.65137E+03
  1.29993E+03 -1.40341E+03  2.04548E+03 -2.71632E+03  3.74677E+03 -1.19139E+03  3.18770E+03  8.69515E+02
  3.46627E+03  1.01355E+03  5.88018E+02  2.83254E+03 -1.61584E+03  2.23209E+03 -4.46202E+03  2.21108E+03
 -4.40034E+03 -9.47707E+02 -9.90982E+02 -3.14442E+03  1.54180E+02 -3.99432E+03  3.27455E+03 -4.82099E+03
  3.44561E+03 -3.15210E+03  5.65505E+03  6.02035E+01  4.13641E+03  3.87928E+03  1.00948E+03  5.35114E+03
 -1.45787E+03  4.81091E+03 -2.74953E+03  1.56414E+03 -1.96977E+03 -7.58997E+02 -8.84490E+01 -3.94965E+02
 -6.56064E+02  3.23562E+02 -1.07088E+03  1.67327E+03 -2.94922E+03  5.92012E+02 -2.98023E+03 -9.04746E+02
 -1.54564E+03 -4.00673E+03  9.76454E+02 -3.64628E+03  2.22695E+03 -3.88248E+03  3.18846E+03 -2.07227E+02
  3.37411E+03  2.00030E+03  1.61152E+03  3.12699E+03 -7.75685E+02  3.78951E+03 -2.52431E+03  2.48272E+03
 -3.14037E+03  9.66547E+02 -2.38513E+03 -2.20079E+03 -1.16056E+02 -2.33362E+03  1.03444E+03 -2.08520E+03
  1.82152E+03 -9.39291E+02  1.33744E+03  1.52526E+02  5.38733E+02  1.43165E+03  7.80874E+02 -2.27251E+02
  1.53590E+03  4.54740E+02  8.09262E+02  1.06197E+03  1.21166E+03  2.01516E+03  9.38649E+02  1.40089E+03
 -1.37227E+03  2.48251E+03 -1.67900E+03  3.79601E+03 -2.67198E+03  8.68382E+02 -3.54226E+03  1.09022E+02
 -1.38227E+03 -2.44393E+03  4.10904E+02 -4.12977E+03  1.15729E+03 -2.18337E+03  2.21856E+03 -6.17811E+02
  1.99291E+03  1.17193E+03  3.64502E+02  1.57731E+03 -1.04419E+03  4.28494E+02 -6.62427E+02  7.93295E+01
  6.68902E+01 -1.41389E+03  9.46591E+02 -9.85142E+02  7.80933E+02 -4.04496E+02  1.45656E+03  2.47437E+02
  5.47152E+02  4.50649E+02  9.31856E+02 -2.60150E+02 -3.12709E+02  6.66264E+02  1.31193E+03 -2.87640E+01
 -2.71396E+02 -4.62434E+02  1.38168E+03  7.88610E+02  3.88725E+02  1.80675E+03 -6.76240E+02  1.80017E+03
 -1.57574E+03  3.20382E+02 -1.74504E+03  6.05469E+02 -1.64059E+03 -9.84988E+02  2.59939E+02 -9.33684E+02
  4.94770E+02 -9.68274E+02  1.25087E+03 -3.28972E+02  5.08709E+02  8.07833E+02 -1.01857E+03  6.18045E+02
 -1.06248E+03  5.98593E+02 -7.74464E+02 -8.27850E+02 -3.71943E+02 -1.35258E+03 -9.33822E+01 -1.53631E+03
  1.07284E+02  9.04314E+01  6.89081E+02  3.28791E+02  1.09143E+03  2.80752E+02  5.97364E+02  1.34075E+03
 -4.83644E+02  4.64537E+02 -5.34230E+02  2.06442E+01  3.66942E+02 -6.52016E+02  1.55737E+03 -1.93841E+02
  4.06785E+02  1.85118E+02  2.40968E+03  4.60145E+02  9.69574E+02  9.98428E+02  4.49139E+01  1.27510E+03
 -1.04594E+03 -1.29033E+02 -1.09885E+03  2.48925E+02 -4.80993E+02 -6.54139E+02 -4.92499E+01 -5.51907E+02
  8.61589E+02 -5.65733E+02  1.62755E+02  7.62282E+02 -1.00971E+02  1.24623E+03  6.13878E+02  9.07714E+02
 -7.75929E+02  1.08145E+03 -1.45226E+02  4.27443E+02  1.96118E+01  2.27271E+02 -7.15192E+02  4.38546E+02
 -3.58936E+02  7.56803E+02 -1.64423E+03  5.36817E+02 -9.69202E+02  1.70005E+02 -2.38651E+03 -3.17730E+02
 -7.08562E+02 -1.14124E+03  8.16791E+02 -2.65893E+03  3.34032E+02 -2.05401E+03  2.04242E+03 -6.68332E+02
  1.71649E+03  3.64302E+01  1.29597E+03  1.66001E+03 -8.75010E+02  6.67551E+02 -4.58192E+02  9.63590E+02
 -1.15374E+03 -1.95651E+02 -1.00116E+03 -2.67757E+02 -8.39549E+01  4.37785E+02 -4.87458E+02 -1.60324E+02
 -4.57439E+01 -5.55264E+02 -1.38922E+03  2.12337E+02  6.91944E+02 -9.25664E+02 -1.64433E+02 -6.46783E+02
  9.26324E+02 -4.02224E+02 -2.60455E+02  4.02848E+02  8.77012E+01  1.05085E+03 -4.91427E+02  1.06171E+03
 -9.65264E+02  1.76610E+03 -7.48645E+02  6.13818E+02 -1.10388E+03 -2.93065E+02 -7.21436E+02 -1.13146E+03
 -2.83849E+02 -8.01148E+02  5.56488E+02 -5.20544E+02 -4.15985E+02 -9.58563E+02  1.48296E+02  2.75017E+01
  9.64780E+02  4.24617E+02  5.71722E+02 -1.90822E+01 -3.32281E+01  1.19986E+02 -1.28527E+01 -1.12337E+02
  4.12358E+02 -6.55730E+00 -4.50988E+01  1.79783E+02 -1.55488E+02  1.56684E+02  8.07326E+02 -2.37187E+02
 -3.08667E+01  1.12857E+01 -1.64768E+00  7.19203E+01 -8.93469E+02  6.35741E+01  4.67615E+02 -7.22661E+02
 -4.87357E+02 -8.36391E+02 -2.00858E+01  2.74453E+02  8.09132E+02 -1.47761E+03  1.91400E+02  7.24717E+02
  5.48042E+02  1.76181E+02  5.73102E+02 -2.30071E+02 -1.60634E+02  8.96802E+02  1.13245E+02  1.44704E+02
 -5.26218E+01 -3.04935E+02 -7.89695E+01  2.96752E+02 -6.45487E+02  2.09913E+02 -1.47800E+02 -1.48650E+02
 -9.89089E+02  2.44175E+02 -1.51575E+02 -3.80415E+02  3.29504E+02 -1.48998E+03  2.46403E+02  7.97655E+01
 -7.55533E+01 -3.68979E+02 -7.82989E+02  3.48536E+02 -2.90469E+02  2.04704E+02 -1.95602E+02  5.32108E+02
