 $NMID ID='MM_0lb_SNR400_16hz_g55_37.RAW', FMTDAT='(8E13.5)'
 TRAMP=1., VOLUME=1. $END
  3.09569E+05  7.87905E+02  3.37798E+05  2.50205E+05  8.44550E+04  3.37957E+05 -1.32506E+05  2.50791E+05
 -1.89822E+05  8.26165E+04 -1.12360E+05 -3.25624E+04  1.12653E+03 -5.06985E+04  5.38155E+04  2.86204E+01
  3.54645E+04  5.31524E+04 -1.69408E+04  7.50595E+04 -6.07907E+04  6.32103E+04 -8.42487E+04  3.15666E+04
 -8.08913E+04 -1.11716E+04 -5.68629E+04 -5.12681E+04 -1.49160E+04 -6.89649E+04  2.71577E+04 -4.58048E+04
  3.97359E+04  4.18298E+03  1.59716E+04  4.72277E+04 -3.45075E+04  4.71910E+04 -6.67456E+04 -7.94021E+02
 -5.26454E+04 -5.68694E+04 -7.30870E+03 -7.71421E+04  3.38772E+04 -5.44649E+04  4.75611E+04 -1.70421E+04
  4.32501E+04  1.13849E+04  3.16570E+04  2.59143E+04  1.57686E+04  2.88635E+04 -5.30614E+03  2.67112E+04
 -2.21873E+04  1.28483E+04 -1.88622E+04 -4.93321E+03  5.23030E+03 -7.33202E+03  2.15588E+04  1.17632E+04
  7.08050E+03  3.55322E+04 -3.19425E+04  3.50172E+04 -6.30088E+04  2.70178E+03 -5.59395E+04 -4.27886E+04
 -1.27352E+04 -6.28261E+04  3.92398E+04 -4.47126E+04  5.72806E+04 -2.71266E+03  3.37377E+04  3.18285E+04
 -5.70927E+03  3.60411E+04 -3.03296E+04  1.52061E+04 -2.98503E+04 -4.44282E+03 -1.65637E+04 -1.03738E+04
 -7.85802E+03 -1.27316E+04 -8.70143E+02 -1.76830E+04  6.78961E+03 -2.30647E+04  1.55268E+04 -1.32378E+04
  1.15116E+04  4.80641E+03 -7.76826E+03  1.27914E+04 -2.14066E+04 -3.43709E+03 -8.56642E+03 -3.33283E+04
  2.23286E+04 -4.31926E+04  4.73354E+04 -1.96968E+04  4.34476E+04  1.88131E+04  1.52222E+04  4.38154E+04
 -1.58450E+04  3.30958E+04 -2.51825E+04  1.61407E+03 -9.28364E+03 -2.72112E+04  2.01866E+04 -3.32259E+04
  4.04393E+04 -8.64312E+03  3.45783E+04  2.34562E+04  1.76830E+04  4.57157E+04 -7.81689E+03  5.01314E+04
 -3.10002E+04  3.36859E+04 -4.08813E+04  9.25206E+03 -4.16463E+04 -1.61627E+04 -2.29559E+04 -3.71950E+04
  6.98302E+03 -3.67385E+04  3.02720E+04 -1.51361E+04  2.86926E+04  1.05021E+04  3.35139E+03  1.85642E+04
 -1.30083E+04  8.44099E+03 -1.02872E+04 -7.12730E+03  5.78678E+03 -1.08145E+04  1.76679E+04  5.54192E+03
  1.35675E+04  2.16936E+04 -6.61710E+03  2.45412E+04 -2.27663E+04  1.15081E+04 -2.74708E+04 -4.75516E+03
 -1.98097E+04 -1.72910E+04 -7.48800E+03 -1.96807E+04  4.66048E+03 -1.87757E+04  1.52831E+04 -1.68467E+04
  2.50272E+04 -1.20549E+04  3.15651E+04  2.85601E+03  2.30505E+04  1.84814E+04  4.43548E+03  3.58462E+04
 -1.72495E+04  2.99579E+04 -2.72694E+04  9.90273E+03 -2.03946E+04 -1.03577E+04 -3.85579E+03 -1.34510E+04
  1.79032E+03 -3.29511E+03 -4.77278E+03  6.10442E+03 -1.57695E+04  5.47042E+03 -1.52439E+04 -6.76254E+03
 -9.68144E+03 -1.82269E+04  5.03219E+03 -2.19068E+04  1.45006E+04 -1.58972E+04  1.68039E+04 -1.33559E+03
  1.08138E+04  1.26508E+04 -7.42956E+02  1.82802E+04 -1.21267E+04  9.57348E+03 -1.81820E+04 -3.99729E+03
 -1.33192E+04 -1.68175E+04 -1.61337E+03 -2.23224E+04  1.01023E+04 -1.76236E+04  1.90858E+04 -8.73286E+03
  1.70800E+04  1.67963E+02  1.26557E+04  4.80545E+03  6.19946E+03  1.15039E+03  9.12538E+03 -1.08878E+03
  1.64150E+04  2.66982E+03  1.79029E+04  1.42860E+04  1.13715E+04  2.89326E+04 -3.05417E+03  3.20099E+04
 -1.82861E+04  2.54234E+04 -2.99373E+04  1.26850E+04 -3.15709E+04 -2.35278E+03 -2.58127E+04 -1.81007E+04
 -1.10743E+04 -2.58625E+04  8.81787E+03 -2.30993E+04  2.04062E+04 -1.24496E+04  1.77132E+04  5.00447E+03
  7.51908E+03  1.33375E+04 -8.41386E+03  1.15896E+04 -1.55021E+04  2.59270E+03 -1.17498E+04 -9.05572E+03
 -1.69583E+02 -1.45700E+04  6.87611E+03 -1.11966E+04  9.62358E+03 -1.22241E+03  2.53517E+03  6.61453E+03
 -6.29804E+03  2.35969E+03 -5.23641E+03 -5.04936E+03 -1.23369E+02 -1.24207E+04  8.56568E+03 -1.31544E+04
  1.55837E+04 -6.89777E+03  1.61454E+04  2.99696E+03  1.36378E+04  1.18880E+04  6.53451E+03  1.80138E+04
 -3.03581E+03  2.06614E+04 -1.35020E+04  1.28308E+04 -1.48045E+04  3.68530E+03 -1.04193E+04 -3.12442E+03
 -5.03968E+03 -4.03583E+03 -4.00290E+02  7.21313E+02 -2.45792E+03  2.40033E+03 -4.78428E+03  4.37966E+03
 -9.79440E+03 -1.43427E+02 -1.01346E+04 -8.17630E+03 -4.14690E+03 -1.32840E+04  4.24115E+03 -1.07657E+04
  8.97262E+03 -4.43402E+03  6.63281E+03  2.44567E+03 -4.97179E+01  4.22410E+03 -5.07041E+03  5.83668E+02
 -4.88402E+03 -6.46997E+03 -5.20545E+02 -9.21097E+03  5.02091E+03 -1.04508E+04  1.24665E+04 -5.01994E+03
  1.49273E+04  1.33854E+03  1.07053E+04  8.38448E+03  2.40378E+03  1.12060E+04 -6.41549E+03  9.78270E+03
 -8.51774E+03  2.96238E+03 -3.99974E+03 -1.61244E+03  1.38523E+03 -1.96731E+03  5.62004E+03 -1.06458E+03
  5.15206E+03  4.61307E+03  1.16081E+03  7.69224E+03 -6.35477E+03  7.81238E+03 -9.70332E+03  2.51439E+03
 -6.92716E+03 -5.23902E+03  9.64880E+01 -8.00427E+03  5.59141E+03 -4.15486E+03  5.00661E+03  1.53418E+03
  9.23422E+02  4.93215E+03 -4.75742E+03  6.24343E+03 -6.71461E+03  2.80425E+03 -7.19914E+03 -2.23714E+03
 -4.38202E+03 -8.44679E+03  2.08143E+03 -1.01591E+04  8.48485E+03 -6.24272E+03  8.51897E+03  2.09031E+03
  6.10675E+03  6.82382E+03 -5.89303E+02  9.56428E+03 -6.38683E+03  4.81911E+03 -7.32531E+03 -5.21765E+02
 -6.95660E+03 -6.47783E+03 -1.50694E+03 -6.83766E+03  3.38408E+03 -5.80645E+03  4.26286E+03 -3.56764E+03
  3.40639E+03  7.82981E+02 -4.70943E+02  1.75044E+03 -1.26597E+01 -1.11458E+03  8.16266E+02 -3.15273E+03
  5.54369E+03 -1.50832E+03  7.94933E+03  1.28370E+03  7.98465E+03  4.38231E+03  6.59952E+03  1.02578E+04
 -1.81114E+03  1.17425E+04 -1.03473E+04  8.49900E+03 -1.36142E+04  1.87707E+03 -1.08022E+04 -4.36735E+03
 -5.86390E+03 -8.67001E+03  1.27287E+01 -7.47399E+03  2.88070E+03 -4.12056E+03  2.60297E+03 -2.01899E+03
  2.39160E+03 -2.43993E+03  2.48831E+03 -3.49636E+03  4.33194E+03 -1.85151E+03  4.36264E+03 -3.06044E+02
  5.96750E+03  1.48541E+03  2.02369E+03  5.10947E+03 -1.41431E+03  4.53165E+03 -6.15504E+03  3.80680E+03
 -7.29277E+03 -7.82116E+02 -3.18247E+03 -5.23125E+03  1.32201E+02 -6.66552E+03  4.70361E+03 -7.12841E+03
  7.76307E+03 -3.94915E+03  9.33888E+03  1.15572E+03  7.29319E+03  6.24010E+03  1.27868E+03  8.39163E+03
 -3.35556E+03  7.91538E+03 -4.46498E+03  3.44700E+03 -2.80601E+03 -8.57162E+02 -9.13013E+02 -9.43560E+02
 -7.98252E+02  7.41880E+02 -1.43698E+03  2.55154E+03 -2.90757E+03  9.46289E+02 -5.60759E+03 -9.30144E+02
 -2.18566E+03 -5.45726E+03  3.45984E+02 -7.08228E+03  4.48437E+03 -6.44572E+03  5.67146E+03 -1.77439E+03
  5.70587E+03  3.39578E+03  2.96587E+03  5.72198E+03 -7.80335E+02  6.35965E+03 -3.95953E+03  4.15218E+03
 -5.92754E+03  3.52274E+02 -4.72996E+03 -3.49412E+03 -6.22641E+02 -4.79574E+03  2.65870E+03 -4.11421E+03
  3.96685E+03 -2.10533E+03  2.59119E+03  9.09904E+02  5.80802E+02  2.05075E+03  8.99418E+02  8.13253E+02
  1.93416E+03  4.22523E+02  1.52225E+03  1.15896E+03  1.73380E+03  1.73917E+03  1.90209E+03  2.72903E+03
 -1.63838E+03  4.78366E+03 -3.54586E+03  5.47272E+03 -5.52953E+03  1.86989E+03 -6.47379E+03 -1.16734E+03
 -2.59144E+03 -5.37240E+03  5.54175E+02 -6.76315E+03  2.77158E+03 -4.04904E+03  4.22242E+03 -1.23597E+03
  4.15537E+03  2.73769E+03 -3.18407E+02  3.39138E+03 -1.76507E+03  1.99902E+03 -2.44015E+03 -5.24900E+02
 -1.10726E+03 -2.03263E+03  1.84519E+03 -2.04826E+03  2.23279E+03 -1.45558E+03  2.04066E+03  8.83657E+02
  1.27089E+03  7.01792E+02  6.43571E+02  4.85676E+02 -8.32872E+02  1.05439E+03  2.77181E+03 -5.77536E+02
  6.13877E+02 -7.36402E+02  2.81733E+03  9.02443E+02  1.51948E+03  3.69695E+03 -7.97003E+02  4.11860E+03
 -2.69568E+03  2.04452E+03 -3.22383E+03  8.28484E+02 -2.63228E+03 -9.42798E+02 -3.38654E+02 -1.64158E+03
  8.80422E+02 -2.22088E+03  1.74606E+03 -1.06189E+03  1.25102E+03  1.74799E+03 -7.07328E+02  1.86244E+03
 -2.16131E+03  9.69755E+02 -1.66630E+03 -1.51108E+03 -8.34731E+02 -2.64067E+03  8.55701E+02 -2.43798E+03
  1.01344E+03 -1.20740E+03  1.94475E+03  1.61482E+02  1.70860E+03  5.53110E+02 -8.30713E+01  2.03684E+03
 -7.81562E+02 -1.72952E+02 -1.04946E+03 -5.79574E+02  5.82148E+02 -1.79718E+03  2.55946E+03 -2.59143E+03
  2.15676E+03  8.94229E+02  3.58991E+03  1.86622E+03  9.58839E+02  2.73304E+03 -9.33328E+02  2.86044E+03
 -2.22032E+03  8.84970E+02 -2.58466E+03 -3.09578E+02 -1.90447E+03 -1.74828E+03  3.17860E+02 -1.56778E+03
  2.07716E+03 -8.58524E+02  1.68839E+03  1.05859E+03  2.22814E+02  2.34183E+03 -6.34614E+01  1.81275E+03
 -1.07224E+03  1.28024E+03 -3.81626E+02 -3.14728E+02  1.02150E+02  4.27977E+02 -7.64576E+02  3.60175E+02
 -9.42838E+02  1.72206E+03 -2.33953E+03  8.02620E+02 -3.40293E+03  1.00048E+02 -3.43907E+03 -1.83091E+03
 -2.15992E+03 -3.67688E+03  9.14085E+02 -4.59413E+03  2.33142E+03 -4.02905E+03  4.32264E+03 -1.56799E+03
  3.69981E+03  6.35678E+02  1.77647E+03  2.62833E+03  9.41124E+01  3.00644E+03 -1.24688E+03  2.50166E+03
 -1.80416E+03  8.04350E+02 -1.36461E+03 -9.05355E+01 -8.56949E+02  2.68991E+02 -1.04352E+03  2.28581E+02
 -4.91924E+02  7.22926E+02 -1.10208E+03  4.52197E+01  4.05416E+02 -1.36334E+03 -1.16464E+02 -1.01713E+03
  2.13043E+03 -1.03047E+03  1.04964E+03  4.28101E+02  2.45939E+03  1.85802E+03 -4.05304E+02  2.69976E+03
 -1.72938E+03  3.36386E+03 -2.60330E+03  2.52061E+03 -2.81109E+03 -3.47312E+02 -2.38875E+03 -2.61780E+03
 -1.63993E+03 -2.77327E+03  8.49404E+02 -1.81679E+03  1.48853E+03 -1.12092E+03  1.90020E+03  5.75718E+01
  1.29636E+03  6.99729E+01 -1.12491E+01  9.46724E+02 -3.59256E+02 -3.83616E+02 -3.99088E+02 -8.95165E+02
  1.66263E+03 -2.16658E+02  7.80624E+02  6.19166E+01  4.39738E+02  1.32952E+03  1.73387E+01  4.59818E+02
 -6.36117E+02  1.36883E+03 -1.38739E+03 -4.30402E+02 -1.78430E+03 -8.55572E+02  8.25771E+01 -1.56765E+03
  1.15673E+03 -1.56198E+03  1.52614E+03 -4.49514E+02  1.81706E+03 -7.30894E+01  7.44658E+02  1.03931E+03
  1.91538E+02  1.14719E+03 -3.64340E+02  1.04335E+03 -1.21255E+03  5.28031E+02 -3.14410E+02 -4.30722E+02
  2.34649E+02  1.86538E+02 -8.71412E+02  6.43760E+02 -5.83337E+02  4.34916E+02 -1.36203E+03 -2.91262E+02
 -1.65150E+03 -3.16392E+02 -4.09831E+01 -1.46645E+03  1.49253E+03 -1.96505E+03  1.53854E+03 -5.80499E+02
  1.03111E+03  6.92938E+02 -2.51033E+02  7.03481E+02 -1.39037E+02  1.00471E+03 -1.10662E+03  7.15625E+02
