 $NMID ID='MM_0lb_SNR400_17hz_g55_66.RAW', FMTDAT='(8E13.5)'
 TRAMP=1., VOLUME=1. $END
  3.10414E+05  1.75528E+02  3.37034E+05  2.50301E+05  8.45259E+04  3.38365E+05 -1.32318E+05  2.50699E+05
 -1.90457E+05  8.31396E+04 -1.10933E+05 -3.19263E+04  7.41915E+02 -5.04149E+04  5.34289E+04 -1.05515E+02
  3.55147E+04  5.30573E+04 -1.66947E+04  7.55451E+04 -6.09812E+04  6.33369E+04 -8.35926E+04  3.20220E+04
 -8.03640E+04 -1.11314E+04 -5.68686E+04 -5.02428E+04 -1.44483E+04 -6.92904E+04  2.69478E+04 -4.55985E+04
  3.99602E+04  3.70718E+03  1.58731E+04  4.76886E+04 -3.42002E+04  4.69236E+04 -6.65420E+04 -9.46151E+01
 -5.27691E+04 -5.62070E+04 -7.41397E+03 -7.68371E+04  3.35082E+04 -5.39262E+04  4.70785E+04 -1.68589E+04
  4.24570E+04  1.10552E+04  3.06294E+04  2.51367E+04  1.53638E+04  2.89338E+04 -5.75534E+03  2.73402E+04
 -2.21271E+04  1.24318E+04 -1.89031E+04 -4.90373E+03  4.89967E+03 -7.85402E+03  2.17033E+04  1.22094E+04
  6.61642E+03  3.41986E+04 -3.12957E+04  3.48653E+04 -6.22212E+04  2.32960E+03 -5.62431E+04 -4.20677E+04
 -1.24602E+04 -6.21818E+04  3.87764E+04 -4.46933E+04  5.65206E+04 -2.26153E+03  3.30613E+04  3.19521E+04
 -6.39417E+03  3.50895E+04 -2.94984E+04  1.52320E+04 -2.99143E+04 -4.93379E+03 -1.55619E+04 -1.02974E+04
 -7.91319E+03 -1.25815E+04 -3.90252E+02 -1.74760E+04  7.15962E+03 -2.25938E+04  1.54391E+04 -1.34193E+04
  1.19582E+04  5.03678E+03 -7.67958E+03  1.28010E+04 -2.02472E+04 -3.83418E+03 -7.95615E+03 -3.27338E+04
  2.18146E+04 -4.26026E+04  4.72047E+04 -1.99222E+04  4.38184E+04  1.83675E+04  1.56318E+04  4.30196E+04
 -1.60777E+04  3.33132E+04 -2.52146E+04  1.18346E+03 -9.00796E+03 -2.70845E+04  2.11631E+04 -3.26954E+04
  3.93047E+04 -8.60454E+03  3.36601E+04  2.30367E+04  1.69956E+04  4.48523E+04 -8.24632E+03  4.79850E+04
 -3.03495E+04  3.20788E+04 -4.01376E+04  8.82490E+03 -4.08758E+04 -1.63542E+04 -2.25922E+04 -3.67644E+04
  6.76587E+03 -3.63397E+04  3.09515E+04 -1.38123E+04  2.82666E+04  1.06653E+04  3.77811E+03  1.83153E+04
 -1.36087E+04  7.60062E+03 -1.00842E+04 -7.94466E+03  5.90640E+03 -1.04131E+04  1.77926E+04  6.44039E+03
  1.26752E+04  2.18068E+04 -6.17607E+03  2.43029E+04 -2.22571E+04  9.94082E+03 -2.69654E+04 -5.04877E+03
 -1.90328E+04 -1.74913E+04 -7.55054E+03 -1.85782E+04  3.47917E+03 -1.76341E+04  1.42702E+04 -1.73711E+04
  2.48421E+04 -1.16704E+04  3.03914E+04  1.36954E+03  2.25262E+04  1.78979E+04  3.74747E+03  3.43991E+04
 -1.73603E+04  2.94422E+04 -2.71563E+04  9.89649E+03 -2.02745E+04 -1.00626E+04 -4.36098E+03 -1.31470E+04
  1.86302E+03 -3.26580E+03 -3.93138E+03  5.46617E+03 -1.45269E+04  5.12933E+03 -1.48577E+04 -6.60766E+03
 -9.05613E+03 -1.72151E+04  4.48648E+03 -2.10147E+04  1.39080E+04 -1.48783E+04  1.64622E+04 -1.91419E+03
  1.06725E+04  1.19109E+04 -1.12484E+03  1.80155E+04 -1.13031E+04  1.00124E+04 -1.70966E+04 -3.37369E+03
 -1.30102E+04 -1.54660E+04 -1.39913E+03 -2.08241E+04  9.68694E+03 -1.73944E+04  1.79833E+04 -8.43226E+03
  1.66474E+04  8.95772E+01  1.19018E+04  4.05370E+03  5.33202E+03  4.82152E+02  8.72673E+03 -1.45591E+03
  1.58732E+04  3.07495E+03  1.73306E+04  1.41590E+04  1.10148E+04  2.70778E+04 -3.11177E+03  3.06615E+04
 -1.77172E+04  2.42746E+04 -2.83079E+04  1.20247E+04 -2.92291E+04 -2.09587E+03 -2.45864E+04 -1.68534E+04
 -1.04555E+04 -2.31809E+04  8.65260E+03 -2.10722E+04  1.87547E+04 -1.16166E+04  1.68216E+04  5.06434E+03
  6.72125E+03  1.26822E+04 -7.75822E+03  1.12816E+04 -1.52403E+04  2.76243E+03 -1.09768E+04 -9.02840E+03
  1.06267E+02 -1.37842E+04  6.29242E+03 -9.92531E+03  8.86250E+03 -1.37199E+03  1.75619E+03  5.12047E+03
 -6.22673E+03  2.13130E+03 -5.04255E+03 -4.92870E+03  3.40906E+02 -1.19816E+04  8.60978E+03 -1.24174E+04
  1.45555E+04 -6.67052E+03  1.52757E+04  3.24572E+03  1.26869E+04  1.11380E+04  5.86219E+03  1.69967E+04
 -1.84737E+03  1.86380E+04 -1.24950E+04  1.15580E+04 -1.37080E+04  3.14865E+03 -9.88226E+03 -3.18287E+03
 -5.05073E+03 -3.64538E+03 -1.33320E+03  1.37371E+03 -2.44590E+03  1.76585E+03 -3.95803E+03  3.58560E+03
 -9.43176E+03 -1.04105E+03 -1.02359E+04 -8.09014E+03 -4.22694E+03 -1.28282E+04  4.47063E+03 -9.42200E+03
  7.97509E+03 -4.31000E+03  5.70669E+03  2.72061E+03  2.82432E+02  3.41109E+03 -3.99423E+03  6.33934E+02
 -3.97397E+03 -6.48636E+03 -5.13402E+01 -8.14287E+03  5.10864E+03 -9.31763E+03  1.24049E+04 -4.95302E+03
  1.41100E+04  1.36433E+03  1.04177E+04  7.44635E+03  1.85568E+03  1.03766E+04 -7.03973E+03  9.32548E+03
 -8.04936E+03  3.09756E+03 -4.11801E+03 -2.10755E+03  1.14078E+03 -2.85709E+03  5.38859E+03 -8.73957E+02
  4.46525E+03  4.17647E+03  1.23010E+03  6.94043E+03 -5.69704E+03  7.10143E+03 -9.23816E+03  2.50098E+03
 -5.97520E+03 -4.45656E+03 -1.19679E+02 -7.22925E+03  4.15656E+03 -3.85846E+03  4.93684E+03  1.48015E+03
  7.33321E+02  4.81096E+03 -4.98358E+03  5.84378E+03 -6.48575E+03  3.14264E+03 -5.90001E+03 -1.99775E+03
 -3.61495E+03 -7.61968E+03  1.51429E+03 -9.25106E+03  7.29449E+03 -5.49228E+03  7.61599E+03  1.69555E+03
  5.86075E+03  6.92013E+03 -2.38988E+01  8.86288E+03 -5.43919E+03  5.14680E+03 -6.87969E+03 -8.65881E+02
 -6.32627E+03 -6.04642E+03 -1.24978E+03 -5.63934E+03  3.16358E+03 -5.30808E+03  3.99040E+03 -3.19709E+03
  3.17543E+03 -2.07376E+02 -3.48542E+02  1.65186E+03  4.41644E+02 -5.89717E+02  1.56844E+02 -2.33201E+03
  5.00166E+03 -1.26149E+03  7.27516E+03  1.19472E+03  6.70761E+03  5.28856E+03  6.61062E+03  9.13890E+03
 -1.55751E+03  1.05385E+04 -8.98360E+03  8.47242E+03 -1.16290E+04  1.46329E+03 -9.17285E+03 -3.08738E+03
 -4.49387E+03 -7.66894E+03 -6.79331E+02 -6.07551E+03  2.99847E+03 -2.66545E+03  2.55531E+03 -2.69671E+03
  1.07114E+03 -2.00392E+03  2.29789E+03 -2.63355E+03  4.02397E+03 -1.54885E+03  4.42484E+03 -8.59967E+01
  5.46484E+03  1.24314E+03  2.15183E+03  3.89069E+03 -1.47686E+03  3.73538E+03 -5.45804E+03  3.58155E+03
 -6.39447E+03 -1.20681E+03 -2.44868E+03 -3.83283E+03  4.77766E+02 -6.08312E+03  4.35197E+03 -7.10238E+03
  7.18417E+03 -3.80981E+03  8.72746E+03  6.06497E+02  6.26163E+03  5.30021E+03  1.55284E+03  7.32164E+03
 -2.92582E+03  6.25453E+03 -3.91213E+03  1.93789E+03 -2.29675E+03 -1.06287E+03 -7.83126E+02 -4.10745E+02
 -5.24136E+02  2.28837E+01 -1.04954E+03  2.07991E+03 -2.41210E+03  1.43129E+03 -5.13602E+03 -1.10442E+01
 -2.07009E+03 -4.26123E+03  6.41777E+02 -6.04177E+03  3.11174E+03 -5.55555E+03  4.78669E+03 -1.49064E+03
  4.78318E+03  3.11967E+03  1.69246E+03  4.37401E+03 -7.67704E+02  5.11410E+03 -3.78755E+03  2.91111E+03
 -4.83814E+03  3.84181E+02 -4.18853E+03 -3.57628E+03 -5.81569E+02 -3.88867E+03  2.54519E+03 -3.42790E+03
  3.29619E+03 -1.15693E+03  2.17065E+03  9.95621E+02  9.84876E+02  1.52419E+03  1.11636E+03  3.11506E+02
  1.79571E+03  5.36685E+02  1.62938E+03  1.01972E+03  1.54763E+03  2.29720E+03  1.35407E+03  1.98573E+03
 -1.18693E+03  4.08231E+03 -3.35859E+03  5.13804E+03 -4.41133E+03  1.48250E+03 -5.66932E+03 -1.59457E+03
 -2.39733E+03 -4.83009E+03  1.53424E+03 -5.84320E+03  2.76644E+03 -3.28695E+03  3.69740E+03 -1.43963E+03
  3.04897E+03  2.33256E+03  8.37223E+02  2.82422E+03 -1.09367E+03  9.93718E+02 -8.27610E+02 -5.25799E+02
 -1.00981E+03 -1.78030E+03  1.35935E+03 -1.69501E+03  2.11717E+03 -7.32756E+02  1.88885E+03  9.17354E+02
  8.38171E+02  8.30229E+02  8.30048E+02 -6.81836E-01 -6.85126E+02  4.33893E+02  1.51918E+03 -3.59208E+02
  3.56559E+02 -6.56431E+02  2.20699E+03  8.97047E+02  8.85985E+02  2.57792E+03 -5.83906E+02  3.18565E+03
 -2.07612E+03  2.10372E+03 -2.79446E+03  9.50085E+02 -2.76307E+03 -9.13641E+02 -5.49789E+02 -1.33218E+03
  7.93173E+02 -1.52278E+03  8.34095E+02 -6.35842E+02  1.02179E+03  1.59931E+03 -7.29699E+02  1.73557E+03
 -2.24485E+03  6.56943E+02 -1.77638E+03 -1.36983E+03 -3.24556E+02 -2.92973E+03  3.79356E+02 -2.43513E+03
  1.13679E+03 -6.84525E+02  1.87191E+03 -1.98646E+02  1.42799E+03 -2.48264E+02  5.24007E+02  1.92554E+03
 -3.48268E+02  2.41018E+02 -8.78099E+02 -9.07549E+02  7.29828E+02 -7.73934E+02  1.96736E+03 -8.80071E+02
  2.17209E+03 -2.04889E+02  3.11542E+03  1.65810E+03  1.26506E+03  1.99725E+03 -3.92311E+02  2.48403E+03
 -2.04534E+03  5.95304E+02 -1.77888E+03 -4.34817E+02 -1.16490E+03 -1.32994E+03  3.27950E+02 -1.12764E+03
  1.69934E+03 -6.25465E+02  1.11182E+03  1.26939E+03  3.62408E+02  2.07233E+03 -1.70836E+02  1.13444E+03
 -2.67675E+02  1.60085E+03 -2.11706E+02  3.09517E+00 -5.25700E+02  5.95858E+02 -3.81285E+02  6.48034E+02
 -3.14336E+02  1.37483E+03 -1.64696E+03  1.00188E+03 -2.00471E+03  2.36890E+02 -2.59118E+03 -9.54142E+02
 -1.61462E+03 -3.10939E+03  1.08044E+02 -3.17105E+03  1.59880E+03 -2.64331E+03  3.63367E+03 -1.17481E+03
  2.92382E+03 -5.01833E+02  1.74900E+03  1.78869E+03  4.98612E+02  2.03277E+03 -6.20661E+02  1.25194E+03
 -1.23879E+03  1.25944E+03 -4.99629E+02 -5.02710E+02 -2.02647E+02  3.37427E+02 -7.12859E+02 -4.11472E+02
 -1.27859E+03 -1.55438E+02 -6.40602E+02  7.48846E+01  4.67296E+01 -5.92825E+02 -5.18780E+02 -1.15010E+03
  1.40965E+03 -5.73686E+02  1.24271E+03  3.69381E+02  8.25798E+02  1.11205E+03 -2.37147E+02  2.02670E+03
 -9.37180E+02  2.75817E+03 -2.38220E+03  1.86943E+03 -2.88378E+03 -4.75999E+02 -1.74705E+03 -1.90849E+03
 -1.19673E+03 -1.90396E+03  1.55445E+02 -1.70908E+03  1.26550E+03 -7.28137E+02  1.29064E+03 -2.38324E+02
  6.36300E+02  5.92471E+02 -5.25227E+01 -5.95425E-01 -6.24150E+02  4.04374E+02 -1.21929E+02 -3.40075E+02
  1.00954E+03  1.48695E+02  6.59393E+02 -2.14017E+02  3.69218E+02  7.68480E+02  6.89657E+02  3.82940E+02
 -5.20263E+02  1.04011E+03 -7.81697E+02  3.38036E+02 -1.97859E+03 -4.81937E+02 -1.74124E+02 -1.40777E+03
  5.51513E+02 -8.42468E+02  1.16370E+03 -4.61249E+02  1.04868E+03 -2.25246E+02  9.18462E+02  6.63305E+02
  3.85603E+02  6.53037E+02  6.93829E+01  7.04242E+02 -5.59173E+02  7.14243E+02 -5.79916E+02  1.88857E+02
  4.95837E+01 -2.81066E+02 -4.54296E+02  2.92388E+02 -5.60091E+02  3.23282E+02 -6.46481E+02  1.02655E+02
 -1.43840E+03  2.96893E+02 -1.17649E+02 -1.26555E+03  9.43866E+02 -1.93061E+03  9.78144E+02 -1.16975E+02
  9.31062E+02 -3.29641E+02  2.06887E+01  6.24114E+02 -5.10401E+02  8.33336E+02 -1.15745E+03  7.62569E+02
