 $NMID ID='MM_0lb_SNR400_11hz_g55_66.RAW', FMTDAT='(8E13.5)'
 TRAMP=1., VOLUME=1. $END
  3.09949E+05  1.16527E+03  3.38105E+05  2.51124E+05  8.40663E+04  3.38760E+05 -1.32927E+05  2.50955E+05
 -1.90495E+05  8.38781E+04 -1.12619E+05 -3.23873E+04 -6.13404E+00 -4.97655E+04  5.37920E+04  6.63386E+01
  3.51746E+04  5.29326E+04 -1.67388E+04  7.58487E+04 -6.13075E+04  6.46216E+04 -8.48923E+04  3.27469E+04
 -8.16934E+04 -1.18832E+04 -5.79986E+04 -5.18644E+04 -1.52122E+04 -7.07726E+04  2.77306E+04 -4.69861E+04
  4.09082E+04  3.97269E+03  1.68351E+04  4.86012E+04 -3.44867E+04  4.77006E+04 -6.76840E+04 -2.86438E+01
 -5.50059E+04 -5.76420E+04 -6.42923E+03 -7.85816E+04  3.48415E+04 -5.64485E+04  4.95595E+04 -1.86042E+04
  4.45169E+04  1.12199E+04  3.30022E+04  2.59114E+04  1.61495E+04  2.98045E+04 -5.64862E+03  2.85510E+04
 -2.22790E+04  1.19634E+04 -1.83682E+04 -5.87348E+03  6.83400E+03 -7.32324E+03  2.34207E+04  1.37657E+04
  7.05968E+03  3.71581E+04 -3.32717E+04  3.64103E+04 -6.50798E+04  1.44232E+03 -5.87455E+04 -4.42050E+04
 -1.28353E+04 -6.50266E+04  4.10265E+04 -4.65622E+04  5.95930E+04 -1.99684E+03  3.58151E+04  3.34305E+04
 -5.14320E+03  3.87540E+04 -3.20623E+04  1.81576E+04 -3.25628E+04 -3.18306E+03 -1.89352E+04 -1.24354E+04
 -8.39462E+03 -1.49758E+04 -7.06434E+02 -1.97531E+04  8.87996E+03 -2.29741E+04  1.51787E+04 -1.22013E+04
  1.09107E+04  5.81757E+03 -1.01764E+04  1.24088E+04 -2.33897E+04 -6.14959E+03 -8.55152E+03 -3.68430E+04
  2.44654E+04 -4.59520E+04  5.11390E+04 -2.00700E+04  4.75701E+04  1.96912E+04  1.60934E+04  4.63244E+04
 -1.62082E+04  3.57658E+04 -2.67841E+04  2.34260E+03 -1.09492E+04 -2.85690E+04  2.19412E+04 -3.62809E+04
  4.35107E+04 -1.09371E+04  3.91482E+04  2.45120E+04  2.08874E+04  4.93695E+04 -8.34394E+03  5.42461E+04
 -3.44165E+04  3.70078E+04 -4.55069E+04  1.00842E+04 -4.61536E+04 -1.75993E+04 -2.50464E+04 -4.07010E+04
  7.88707E+03 -4.12636E+04  3.40050E+04 -1.62956E+04  3.14616E+04  1.05355E+04  4.22300E+03  1.96223E+04
 -1.43536E+04  9.44983E+03 -1.08062E+04 -7.49445E+03  6.00254E+03 -1.08572E+04  1.82943E+04  5.24237E+03
  1.45853E+04  2.23904E+04 -5.38649E+03  2.64707E+04 -2.30167E+04  1.33236E+04 -3.01963E+04 -3.81180E+03
 -2.44180E+04 -1.78186E+04 -1.13444E+04 -2.39588E+04  3.99179E+03 -2.34488E+04  1.84791E+04 -2.19800E+04
  3.00495E+04 -1.35647E+04  3.61916E+04  4.07723E+03  2.56027E+04  2.30169E+04  4.20813E+03  4.03234E+04
 -1.93403E+04  3.30717E+04 -2.96130E+04  1.12165E+04 -2.16982E+04 -9.24509E+03 -5.16146E+03 -1.31640E+04
  1.61471E+03 -1.60536E+03 -6.07060E+03  7.64372E+03 -1.97937E+04  4.44059E+03 -1.92511E+04 -8.90389E+03
 -1.14493E+04 -2.12028E+04  6.42556E+03 -2.63013E+04  1.79400E+04 -1.91154E+04  2.11559E+04 -1.18180E+03
  1.37878E+04  1.49672E+04 -1.45449E+03  2.25418E+04 -1.64835E+04  1.21930E+04 -2.18690E+04 -4.39324E+03
 -1.63264E+04 -1.99647E+04 -2.29456E+03 -2.66088E+04  1.16887E+04 -2.19178E+04  2.21232E+04 -1.14450E+04
  2.07951E+04  3.40163E+02  1.48179E+04  4.22768E+03  8.15564E+03  1.25366E+03  1.11346E+04 -2.31542E+03
  2.08691E+04  2.46881E+03  2.33197E+04  1.73772E+04  1.61116E+04  3.53033E+04 -2.49616E+03  4.07667E+04
 -2.33627E+04  3.39130E+04 -3.82708E+04  1.77496E+04 -4.07701E+04 -2.84972E+03 -3.35908E+04 -2.38673E+04
 -1.36939E+04 -3.45556E+04  1.13350E+04 -3.07998E+04  2.57822E+04 -1.49896E+04  2.26409E+04  7.28465E+03
  7.48536E+03  1.74003E+04 -1.10041E+04  1.43092E+04 -1.82188E+04  2.38358E+03 -1.42737E+04 -1.15989E+04
  4.50648E+01 -1.87990E+04  1.01398E+04 -1.34026E+04  1.20347E+04 -1.67921E+03  3.50750E+03  8.62021E+03
 -8.31120E+03  4.04228E+03 -8.76725E+03 -6.38788E+03 -7.50078E+02 -1.59164E+04  1.05347E+04 -1.85367E+04
  2.12531E+04 -1.06271E+04  2.38124E+04  3.20438E+03  2.00968E+04  1.65106E+04  9.63610E+03  2.68568E+04
 -4.33971E+03  2.79787E+04 -1.77827E+04  1.73795E+04 -2.01407E+04  3.33862E+03 -1.40221E+04 -4.96810E+03
 -5.55963E+03 -5.99112E+03 -1.10489E+03  2.93591E+02 -2.79451E+03  2.63743E+03 -7.16737E+03  5.23134E+03
 -1.26942E+04 -8.13055E+02 -1.32212E+04 -1.08308E+04 -5.33778E+03 -1.71242E+04  5.76192E+03 -1.44147E+04
  1.18738E+04 -6.09951E+03  8.31791E+03  4.11181E+03 -2.93394E+02  5.81456E+03 -6.85076E+03 -5.09824E+02
 -6.28350E+03 -9.44595E+03 -3.63514E+02 -1.39086E+04  8.07394E+03 -1.43669E+04  1.83574E+04 -7.51486E+03
  2.07551E+04  1.52157E+03  1.52489E+04  1.25226E+04  3.35194E+03  1.67512E+04 -9.00015E+03  1.41398E+04
 -1.07653E+04  3.86995E+03 -5.26886E+03 -3.09305E+03  2.26559E+03 -3.88166E+03  7.06735E+03 -8.64688E+02
  6.70318E+03  5.78946E+03  1.02327E+03  1.14615E+04 -8.66869E+03  1.09130E+04 -1.44332E+04  2.82155E+03
 -9.24399E+03 -7.21179E+03  3.53460E+02 -1.13280E+04  8.04464E+03 -6.29074E+03  7.42098E+03  2.44389E+03
  2.11330E+03  9.05660E+03 -7.25700E+03  1.00920E+04 -1.20738E+04  4.53861E+03 -1.22082E+04 -4.68933E+03
 -6.90119E+03 -1.35086E+04  3.61204E+03 -1.60422E+04  1.34925E+04 -9.36067E+03  1.47801E+04  2.68950E+03
  8.29787E+03  1.16888E+04 -8.98712E+02  1.44559E+04 -1.10887E+04  7.73542E+03 -1.12663E+04 -1.47289E+03
 -9.82220E+03 -8.96761E+03 -1.51522E+03 -9.95534E+03  5.82574E+03 -8.68710E+03  5.67662E+03 -3.50045E+03
  4.59272E+03  2.15284E+03 -6.15331E+02  1.48739E+03 -1.36612E+02 -3.28357E+03  2.16387E+03 -6.43479E+03
  1.00845E+04 -4.03741E+03  1.31602E+04  5.09382E+02  1.35986E+04  9.06705E+03  9.21816E+03  1.82030E+04
 -3.93555E+03  2.08176E+04 -1.66841E+04  1.54118E+04 -2.30814E+04  2.68314E+03 -1.79950E+04 -7.99668E+03
 -9.22228E+03 -1.45902E+04 -1.93829E+02 -1.28193E+04  4.69380E+03 -6.99834E+03  4.85986E+03 -4.79038E+03
  3.21033E+03 -2.08887E+03  3.20642E+03 -3.59343E+03  5.35178E+03 -2.62758E+03  7.06542E+03 -1.24536E+03
  9.16482E+03  2.16167E+03  5.35236E+03  7.47440E+03 -1.66470E+03  9.29485E+03 -9.33769E+03  7.75397E+03
 -1.13835E+04 -9.77519E+02 -7.65024E+03 -8.13165E+03 -1.07165E+03 -1.29364E+04  6.93695E+03 -1.38949E+04
  1.39340E+04 -8.00343E+03  1.60292E+04  1.41934E+03  1.18865E+04  1.10690E+04  1.82089E+03  1.47762E+04
 -6.45395E+03  1.26015E+04 -9.92220E+03  4.14810E+03 -5.55528E+03 -1.72685E+03 -2.45001E+03 -1.94103E+03
 -2.24540E+03  7.15155E+02 -2.03669E+03  2.05113E+03 -5.49342E+03  2.05118E+03 -8.30931E+03 -8.16055E+02
 -6.10305E+03 -8.42975E+03 -2.33944E+02 -1.17863E+04  6.82371E+03 -1.08822E+04  1.22668E+04 -3.56780E+03
  1.16921E+04  5.95722E+03  6.06231E+03  1.07324E+04 -2.81945E+03  1.21778E+04 -8.96556E+03  7.57531E+03
 -1.16426E+04  1.95451E+02 -9.24400E+03 -8.55372E+03 -8.00193E+02 -9.65668E+03  5.68357E+03 -7.50387E+03
  7.42805E+03 -2.38609E+03  4.78863E+03  2.27794E+03  1.95969E+03  3.77393E+03  1.33924E+03  1.67729E+03
  2.04352E+03  5.04048E+02  2.65067E+03  1.80696E+03  3.60151E+03  3.82455E+03  4.29013E+03  5.89190E+03
 -1.94659E+03  9.73632E+03 -8.44513E+03  9.47849E+03 -1.20427E+04  2.75565E+03 -1.23098E+04 -5.17088E+03
 -5.72790E+03 -1.19610E+04  1.70048E+03 -1.36867E+04  7.36865E+03 -8.02067E+03  1.03086E+04 -2.49102E+03
  6.69719E+03  4.59779E+03  1.80689E+03  6.44248E+03 -3.06768E+03  4.17393E+03 -4.67736E+03 -1.12521E+03
 -2.17997E+03 -4.88981E+03  2.99993E+03 -5.28055E+03  5.17524E+03 -2.29219E+03  4.37710E+03  9.66986E+02
  3.15109E+03  2.16665E+03  1.23907E+03  1.71248E+03 -1.26436E+02  1.98859E+03  1.03150E+03 -6.03881E+02
  1.99476E+03  1.61998E+02  5.50971E+03  2.11759E+03  3.45941E+03  6.60250E+03 -1.55740E+03  8.57918E+03
 -6.10540E+03  5.09440E+03 -7.23524E+03  1.90635E+03 -6.67706E+03 -2.62485E+03 -2.68942E+03 -3.93159E+03
  3.15565E+02 -4.56286E+03  3.08621E+03 -2.43522E+03  2.25708E+03  3.01588E+03 -1.44410E+03  4.08578E+03
 -5.17174E+03  2.13793E+03 -5.12513E+03 -2.83186E+03 -3.34611E+03 -6.62244E+03  1.29585E+03 -6.25791E+03
  3.20954E+03 -3.59709E+03  4.87557E+03 -4.30511E+02  3.64765E+03  1.16138E+03  2.25453E+01  3.87934E+03
 -2.18434E+03  1.14749E+03 -2.58901E+03 -1.73933E+03  1.43120E+03 -4.62507E+03  5.95431E+03 -4.58557E+03
  7.42791E+03  3.83048E+02  7.08684E+03  4.96209E+03  2.72392E+03  7.71760E+03 -2.23794E+03  7.08395E+03
 -6.16017E+03  3.17880E+03 -6.18842E+03 -7.94063E+02 -3.58839E+03 -4.97118E+03  1.61597E+03 -3.95851E+03
  5.35753E+03 -2.50454E+03  4.39212E+03  2.53805E+03  1.25055E+03  4.22585E+03 -9.72049E+02  3.41156E+03
 -1.54609E+03  2.43550E+03 -1.39432E+03  4.61166E+02 -1.78238E+03  2.60490E+02 -1.52910E+03  2.13628E+03
 -2.05504E+03  1.79807E+03 -5.26146E+03  1.65029E+03 -7.94329E+03 -3.84022E+02 -8.12310E+03 -5.26582E+03
 -4.31162E+03 -1.03951E+04  3.08288E+03 -1.13739E+04  6.91473E+03 -8.98348E+03  1.14931E+04 -3.77460E+03
  9.96681E+03  1.98591E+03  5.94093E+03  6.57058E+03  3.47361E+02  7.52293E+03 -3.03929E+03  5.43565E+03
 -4.00179E+03  2.55314E+03 -2.80559E+03 -1.16325E+03 -5.99192E+02 -4.29402E+02 -3.70644E+02 -3.92084E+02
 -1.60573E+03 -3.99262E+01 -1.65398E+03 -3.94488E+02 -1.31337E+03 -2.22981E+03  1.34424E+02 -3.45251E+03
  4.02136E+03 -2.76002E+03  3.94135E+03  5.85532E+02  4.95046E+03  5.29807E+03  1.14316E+03  7.18772E+03
 -3.59724E+03  8.64483E+03 -7.34545E+03  5.20405E+03 -8.99131E+03 -1.06170E+03 -7.21935E+03 -5.72980E+03
 -2.76986E+03 -6.89456E+03  2.22034E+03 -7.11858E+03  4.60631E+03 -3.89014E+03  5.85309E+03  6.52851E+02
  2.88001E+03  1.95439E+03 -5.17533E+02  2.34699E+03 -1.35878E+03 -5.74739E+02  3.80320E+02 -1.46284E+03
  2.40213E+03 -3.15472E+02  2.45749E+03  6.88112E+02  8.74587E+02  2.00072E+03  2.78247E+02  3.01755E+03
 -3.60159E+03  2.95985E+03 -4.16381E+03  6.67314E+02 -4.91094E+03 -3.22309E+03 -8.87434E+02 -6.16648E+03
  3.76373E+03 -5.01259E+03  5.49880E+03 -1.14507E+03  5.94844E+03  1.42252E+03  3.14897E+03  4.90090E+03
  5.48443E+02  4.68716E+03 -1.82322E+03  4.15057E+03 -3.02883E+03  1.58970E+03 -2.42334E+03  1.75887E+02
 -1.41617E+03 -7.11125E+02 -1.34735E+03  7.42876E+01 -2.09046E+03  1.04565E+03 -4.07484E+03 -1.12090E+03
 -4.03436E+03 -2.30770E+03 -1.05570E+03 -5.07341E+03  1.87222E+03 -5.19180E+03  4.25044E+03 -2.18309E+03
  5.23006E+03  8.32121E+02  2.13177E+03  2.74526E+03 -1.74934E+02  4.57902E+03 -3.12444E+03  2.60631E+03
