 $NMID ID='MM_0lb_SNR400_11hz_g50_2.RAW', FMTDAT='(8E13.5)'
 TRAMP=1., VOLUME=1. $END
  3.10470E+05  7.61427E+02  3.38075E+05  2.50372E+05  8.53481E+04  3.38882E+05 -1.32960E+05  2.51254E+05
 -1.90912E+05  8.36052E+04 -1.11567E+05 -3.23644E+04 -7.47989E+01 -5.05007E+04  5.35415E+04 -5.33953E+02
  3.57940E+04  5.20715E+04 -1.65077E+04  7.55328E+04 -6.12981E+04  6.37732E+04 -8.43028E+04  3.24045E+04
 -8.14329E+04 -1.18081E+04 -5.72601E+04 -5.26566E+04 -1.46715E+04 -7.04555E+04  2.76449E+04 -4.61931E+04
  4.10729E+04  3.95764E+03  1.64797E+04  4.81029E+04 -3.47376E+04  4.76339E+04 -6.70644E+04 -1.64516E+02
 -5.38474E+04 -5.74546E+04 -7.14469E+03 -7.82206E+04  3.43872E+04 -5.68057E+04  4.91474E+04 -1.77969E+04
  4.45326E+04  1.07400E+04  3.31038E+04  2.68961E+04  1.57295E+04  2.95268E+04 -5.06879E+03  2.73885E+04
 -2.18161E+04  1.24088E+04 -1.83155E+04 -4.88666E+03  6.87514E+03 -7.37035E+03  2.33003E+04  1.24907E+04
  6.73596E+03  3.69053E+04 -3.29843E+04  3.65220E+04 -6.53762E+04  2.21256E+03 -5.79675E+04 -4.45983E+04
 -1.29616E+04 -6.45181E+04  4.11736E+04 -4.66986E+04  5.98879E+04 -2.45862E+03  3.56395E+04  3.34750E+04
 -5.97261E+03  3.76147E+04 -3.11528E+04  1.77372E+04 -3.33728E+04 -3.75940E+03 -1.83411E+04 -1.21049E+04
 -9.23970E+03 -1.48389E+04 -3.71317E+02 -1.90953E+04  7.55000E+03 -2.39717E+04  1.56095E+04 -1.30837E+04
  1.13262E+04  5.91194E+03 -9.07565E+03  1.28387E+04 -2.23585E+04 -5.48390E+03 -8.58929E+03 -3.65092E+04
  2.44778E+04 -4.61399E+04  4.98908E+04 -2.02023E+04  4.67563E+04  2.06876E+04  1.60746E+04  4.62546E+04
 -1.63925E+04  3.45636E+04 -2.63198E+04  2.80174E+03 -1.08348E+04 -2.86945E+04  2.11329E+04 -3.59111E+04
  4.30709E+04 -1.03507E+04  3.98748E+04  2.49810E+04  1.98556E+04  4.96855E+04 -7.96129E+03  5.39753E+04
 -3.38747E+04  3.66106E+04 -4.49608E+04  1.03068E+04 -4.60641E+04 -1.79314E+04 -2.54426E+04 -4.05571E+04
  8.08118E+03 -4.00334E+04  3.32905E+04 -1.62892E+04  3.09098E+04  1.13762E+04  4.88212E+03  2.03973E+04
 -1.31576E+04  9.30159E+03 -1.15344E+04 -7.53288E+03  5.90847E+03 -1.06666E+04  1.88169E+04  6.48254E+03
  1.45526E+04  2.29093E+04 -5.38396E+03  2.68585E+04 -2.29545E+04  1.33244E+04 -3.04346E+04 -3.18410E+03
 -2.35250E+04 -1.77773E+04 -1.02719E+04 -2.30496E+04  4.48423E+03 -2.27077E+04  1.81751E+04 -2.14540E+04
  2.97793E+04 -1.28234E+04  3.57348E+04  4.99494E+03  2.57993E+04  2.24777E+04  4.19891E+03  3.96098E+04
 -1.91715E+04  3.29503E+04 -2.88348E+04  1.16687E+04 -2.18761E+04 -9.38603E+03 -4.36699E+03 -1.33807E+04
  1.60435E+03 -1.94621E+03 -6.87449E+03  7.07558E+03 -1.85497E+04  4.20978E+03 -1.81587E+04 -9.24491E+03
 -1.13900E+04 -2.11963E+04  5.29600E+03 -2.54251E+04  1.68327E+04 -1.86628E+04  2.09495E+04 -1.28601E+03
  1.34145E+04  1.49996E+04 -1.54082E+03  2.15489E+04 -1.42956E+04  1.21978E+04 -2.19893E+04 -4.74313E+03
 -1.63188E+04 -1.91477E+04 -1.53033E+03 -2.55667E+04  1.15929E+04 -2.20726E+04  2.12499E+04 -1.11555E+04
  2.02438E+04  1.33737E+02  1.47529E+04  4.99032E+03  8.02288E+03  1.45176E+03  1.09376E+04 -1.65122E+03
  2.02076E+04  3.68058E+03  2.29017E+04  1.70231E+04  1.51536E+04  3.46496E+04 -2.88256E+03  3.99258E+04
 -2.27966E+04  3.30650E+04 -3.76835E+04  1.73966E+04 -3.97295E+04 -2.85953E+03 -3.23557E+04 -2.36933E+04
 -1.36997E+04 -3.38301E+04  1.08952E+04 -2.93964E+04  2.53155E+04 -1.38901E+04  2.22885E+04  6.88476E+03
  7.59564E+03  1.71654E+04 -1.01130E+04  1.46672E+04 -1.77785E+04  3.31948E+03 -1.44802E+04 -1.14275E+04
 -1.62457E+02 -1.76381E+04  9.25662E+03 -1.25844E+04  1.20155E+04 -1.20333E+03  2.55761E+03  7.77419E+03
 -8.33471E+03  3.63011E+03 -8.05678E+03 -6.74072E+03 -1.39539E+03 -1.62629E+04  1.11323E+04 -1.78545E+04
  2.06623E+04 -9.84473E+03  2.28757E+04  3.84439E+03  1.94027E+04  1.61425E+04  8.92673E+03  2.55785E+04
 -4.76852E+03  2.71909E+04 -1.67433E+04  1.71826E+04 -2.00091E+04  4.10687E+03 -1.36334E+04 -5.06555E+03
 -6.17848E+03 -6.01167E+03 -1.84504E+03  7.33466E+01 -2.99894E+03  2.77592E+03 -6.32240E+03  4.96091E+03
 -1.21277E+04 -1.03808E+03 -1.35790E+04 -1.04252E+04 -5.52689E+03 -1.71828E+04  5.42741E+03 -1.34708E+04
  1.17530E+04 -5.80888E+03  8.67276E+03  4.12853E+03  1.04200E+02  5.28396E+03 -6.58428E+03  1.11428E+02
 -6.60533E+03 -8.93371E+03 -1.15226E+03 -1.33559E+04  7.71728E+03 -1.40182E+04  1.76275E+04 -7.26405E+03
  2.05027E+04  2.47585E+03  1.49024E+04  1.26092E+04  3.50882E+03  1.59945E+04 -8.96609E+03  1.35336E+04
 -1.10331E+04  4.09425E+03 -5.70089E+03 -3.15470E+03  2.63035E+03 -3.67056E+03  7.31992E+03 -1.53555E+03
  6.74847E+03  6.50667E+03  1.35831E+03  1.09575E+04 -8.37879E+03  1.11952E+04 -1.36496E+04  2.46887E+03
 -8.86929E+03 -7.65331E+03 -1.15524E+02 -1.20302E+04  7.62103E+03 -6.33302E+03  8.02091E+03  2.33659E+03
  1.23087E+03  7.83353E+03 -6.81977E+03  9.95068E+03 -1.18172E+04  3.79432E+03 -1.13442E+04 -4.24123E+03
 -6.74850E+03 -1.32367E+04  3.20992E+03 -1.53471E+04  1.34573E+04 -9.17215E+03  1.37977E+04  2.40154E+03
  8.48163E+03  1.07538E+04 -4.15622E+02  1.37618E+04 -9.40732E+03  7.38893E+03 -1.12752E+04 -7.82997E+02
 -9.76882E+03 -8.56615E+03 -1.51563E+03 -1.00297E+04  5.11701E+03 -8.80048E+03  6.34434E+03 -3.41742E+03
  4.58419E+03  1.24640E+03 -8.72134E+02  2.18132E+03 -9.13216E+02 -2.46163E+03  1.51706E+03 -6.03282E+03
  9.37102E+03 -4.00548E+03  1.37195E+04  1.61981E+03  1.25983E+04  8.88987E+03  8.75825E+03  1.75874E+04
 -3.91905E+03  1.97941E+04 -1.68384E+04  1.48575E+04 -2.16614E+04  2.94681E+03 -1.69862E+04 -7.56382E+03
 -8.45398E+03 -1.38826E+04 -2.38945E+02 -1.19019E+04  3.88223E+03 -6.68852E+03  4.00561E+03 -4.14975E+03
  3.64260E+03 -2.15790E+03  3.53900E+03 -3.85219E+03  4.92785E+03 -2.68191E+03  7.15391E+03 -6.88126E+02
  9.81008E+03  2.04483E+03  4.63767E+03  7.75998E+03 -2.67033E+03  9.82288E+03 -9.63424E+03  7.10439E+03
 -1.13871E+04 -2.84840E+02 -6.98835E+03 -7.85523E+03 -1.31789E+03 -1.23321E+04  6.84612E+03 -1.27653E+04
  1.33230E+04 -8.28111E+03  1.58286E+04  1.45512E+03  1.11894E+04  1.07825E+04  1.36276E+03  1.41196E+04
 -6.14948E+03  1.15074E+04 -8.77186E+03  4.49372E+03 -4.63837E+03 -1.68520E+03 -2.38251E+03 -1.51155E+03
 -1.23535E+03  5.35437E+02 -2.52951E+03  3.07541E+03 -4.86973E+03  2.57338E+03 -8.18120E+03 -5.34601E+02
 -5.81063E+03 -8.71943E+03  7.16845E+02 -1.13565E+04  7.54490E+03 -1.13196E+04  1.12014E+04 -3.58172E+03
  1.17201E+04  5.95462E+03  5.59961E+03  1.08985E+04 -2.53826E+03  1.18425E+04 -8.37304E+03  7.19072E+03
 -1.11412E+04  3.48953E+02 -8.61738E+03 -7.24509E+03 -1.04487E+03 -8.94046E+03  4.82916E+03 -7.16414E+03
  7.39958E+03 -2.47621E+03  6.23315E+03  2.25879E+03  1.27207E+03  3.34409E+03  9.86498E+02  1.90952E+03
  2.63579E+03  9.02193E+02  2.29163E+03  1.78706E+03  3.31814E+03  3.89385E+03  3.50071E+03  6.46446E+03
 -2.45901E+03  9.08357E+03 -7.76093E+03  9.89445E+03 -1.17121E+04  2.35054E+03 -1.26552E+04 -4.89171E+03
 -6.31630E+03 -1.15307E+04  1.62522E+03 -1.31824E+04  7.07971E+03 -8.22442E+03  1.02633E+04 -2.67771E+03
  6.97915E+03  4.10821E+03  1.65762E+03  6.08555E+03 -3.30930E+03  3.92695E+03 -4.59748E+03  3.06542E+02
 -2.64201E+03 -4.96116E+03  2.93024E+03 -4.83426E+03  4.30389E+03 -2.69516E+03  4.78240E+03  1.51646E+03
  3.19071E+03  2.18394E+03  2.18159E+03  1.85633E+03 -9.77361E+02  1.32227E+03  2.03852E+03 -2.40351E+02
  1.70831E+03 -1.19820E+03  4.51800E+03  1.67030E+03  2.31978E+03  6.21650E+03 -8.75918E+02  8.21977E+03
 -5.86816E+03  5.09592E+03 -7.32210E+03  1.07538E+03 -6.39631E+03 -2.19952E+03 -2.31409E+03 -4.36868E+03
  7.44422E+02 -3.90921E+03  3.63148E+03 -2.10339E+03  2.37250E+03  2.61315E+03 -1.56491E+03  3.32135E+03
 -4.71584E+03  2.59985E+03 -5.34060E+03 -2.82389E+03 -3.49133E+03 -6.91192E+03  3.62268E+02 -5.96546E+03
  3.71474E+03 -4.21945E+03  3.45132E+03 -1.37588E+02  4.42147E+03  1.43607E+03  3.77590E+02  3.15410E+03
 -1.63871E+03  9.76379E+02 -2.37531E+03 -1.62297E+03  1.22626E+03 -4.26157E+03  5.79469E+03 -4.05123E+03
  6.63971E+03 -2.03708E+02  6.81142E+03  4.73774E+03  2.74609E+03  7.15812E+03 -2.02048E+03  7.16123E+03
 -5.32618E+03  2.89607E+03 -7.42194E+03 -7.54647E+02 -3.07927E+03 -5.18337E+03  1.15364E+03 -4.66450E+03
  4.47054E+03 -2.61886E+03  3.04880E+03  2.37144E+03  1.03429E+03  4.53417E+03 -6.71786E+01  4.04058E+03
 -2.15569E+03  2.20946E+03 -1.91694E+03  9.00696E+02 -1.03371E+03  5.21396E+02 -1.98927E+03  1.52274E+03
 -1.69554E+03  2.43507E+03 -5.04759E+03  2.37590E+03 -7.46767E+03  2.15109E+02 -8.51970E+03 -5.02710E+03
 -4.54291E+03 -9.44596E+03  1.89102E+03 -1.08177E+04  6.70358E+03 -8.36598E+03  1.05553E+04 -3.16540E+03
  9.60991E+03  2.25656E+03  5.35349E+03  6.52247E+03  1.92123E+02  7.03679E+03 -3.14588E+03  5.26746E+03
 -4.29204E+03  1.86107E+03 -2.79480E+03 -5.96552E+02 -9.35277E+02 -5.14567E+02 -2.64620E+02 -3.38757E+02
 -1.64718E+03  7.09800E+02 -2.02275E+03  1.44334E+02 -4.52294E+02 -2.66365E+03  1.01422E+02 -2.91994E+03
  3.61124E+03 -1.98645E+03  4.21602E+03  1.08419E+02  5.15926E+03  4.37029E+03  1.09035E+03  6.88487E+03
 -3.73854E+03  8.58774E+03 -7.60593E+03  5.37746E+03 -9.10223E+03 -7.65378E+02 -6.83703E+03 -5.77699E+03
 -2.52831E+03 -7.18822E+03  1.23602E+03 -6.47097E+03  4.30310E+03 -3.31197E+03  4.53115E+03  4.08185E+02
  2.91480E+03  2.87096E+03 -3.71762E+02  2.69701E+03 -1.43758E+03 -1.67205E+02 -3.45770E+02 -1.79594E+03
  2.75123E+03 -1.39896E+03  1.99241E+03  1.25002E+03  1.92682E+03  2.99815E+03 -5.38204E+01  3.15542E+03
 -3.60491E+03  3.19169E+03 -4.75180E+03 -2.28048E+02 -3.90296E+03 -3.20956E+03 -6.93324E+02 -5.87457E+03
  3.52663E+03 -4.84445E+03  5.08745E+03 -9.35248E+02  5.71432E+03  1.57587E+03  4.22786E+03  4.73788E+03
  8.30906E+02  4.30135E+03 -9.65777E+02  3.46107E+03 -3.49473E+03  2.17719E+03 -1.96899E+03  2.66053E+02
 -1.56396E+03 -8.33522E+02 -2.42269E+03  6.60467E+02 -3.46812E+03  1.43776E+03 -3.94200E+03 -1.69843E+03
 -3.56589E+03 -1.81106E+03 -8.59248E+02 -4.72509E+03  2.55116E+03 -5.15027E+03  4.36457E+03 -1.97710E+03
  5.09553E+03  1.25128E+03  1.71498E+03  3.42276E+03 -3.50581E+02  4.20200E+03 -3.01898E+03  3.01243E+03
