 $NMID ID='MM_0lb_SNR400_9hz_g60_56.RAW', FMTDAT='(8E13.5)'
 TRAMP=1., VOLUME=1. $END
  3.09896E+05  1.14963E+03  3.38030E+05  2.50054E+05  8.56004E+04  3.38758E+05 -1.32746E+05  2.51950E+05
 -1.90857E+05  8.33726E+04 -1.12577E+05 -3.23246E+04  9.51664E+02 -5.11281E+04  5.26099E+04 -5.56962E+02
  3.54514E+04  5.25785E+04 -1.68092E+04  7.72137E+04 -6.11487E+04  6.46611E+04 -8.57370E+04  3.19887E+04
 -8.30048E+04 -1.17270E+04 -5.80798E+04 -5.24763E+04 -1.53670E+04 -7.07722E+04  2.79167E+04 -4.66658E+04
  4.03350E+04  3.37759E+03  1.70245E+04  4.82511E+04 -3.50595E+04  4.84428E+04 -6.92241E+04  1.17902E+03
 -5.47714E+04 -5.83838E+04 -8.14501E+03 -7.95845E+04  3.42139E+04 -5.65880E+04  5.02612E+04 -1.80551E+04
  4.59655E+04  1.16875E+04  3.40649E+04  2.59941E+04  1.57374E+04  3.05714E+04 -5.20221E+03  2.80781E+04
 -2.38295E+04  1.07804E+04 -1.74839E+04 -4.53424E+03  7.62396E+03 -7.61594E+03  2.41298E+04  1.48639E+04
  7.36140E+03  3.77406E+04 -3.47005E+04  3.81776E+04 -6.66081E+04  1.88165E+03 -5.97127E+04 -4.51392E+04
 -1.18598E+04 -6.61184E+04  4.16687E+04 -4.83836E+04  6.20679E+04 -2.31495E+03  3.71149E+04  3.47596E+04
 -5.05240E+03  4.07997E+04 -3.25245E+04  1.81482E+04 -3.41716E+04 -3.42508E+03 -1.92219E+04 -1.20706E+04
 -8.89581E+03 -1.58945E+04 -1.05481E+03 -1.99000E+04  8.97230E+03 -2.27559E+04  1.59406E+04 -1.33638E+04
  1.03993E+04  5.73516E+03 -1.14715E+04  1.21834E+04 -2.41054E+04 -6.66286E+03 -9.50746E+03 -3.89194E+04
  2.60970E+04 -4.71810E+04  5.34297E+04 -2.10931E+04  4.98720E+04  2.12242E+04  1.72986E+04  4.79352E+04
 -1.70317E+04  3.70006E+04 -2.75376E+04  3.39565E+03 -1.24142E+04 -3.01297E+04  2.15851E+04 -3.69619E+04
  4.60659E+04 -1.22019E+04  4.18037E+04  2.57622E+04  2.13456E+04  5.24873E+04 -8.24850E+03  5.73175E+04
 -3.57584E+04  4.01465E+04 -4.89243E+04  1.14387E+04 -4.78509E+04 -1.95907E+04 -2.66836E+04 -4.28573E+04
  7.48959E+03 -4.27668E+04  3.52538E+04 -1.75371E+04  3.34462E+04  1.17226E+04  6.02515E+03  2.07107E+04
 -1.41202E+04  9.40215E+03 -1.16641E+04 -8.03079E+03  5.17363E+03 -1.22246E+04  1.90134E+04  5.65347E+03
  1.51913E+04  2.27042E+04 -4.98316E+03  2.79207E+04 -2.47968E+04  1.43627E+04 -3.20574E+04 -3.20084E+03
 -2.61989E+04 -1.87698E+04 -1.25556E+04 -2.53945E+04  3.96555E+03 -2.67294E+04  2.17513E+04 -2.41010E+04
  3.31989E+04 -1.47285E+04  3.92704E+04  5.46948E+03  2.81304E+04  2.54191E+04  4.82050E+03  4.21128E+04
 -2.05161E+04  3.53987E+04 -3.10078E+04  1.28123E+04 -2.25310E+04 -1.07611E+04 -5.49251E+03 -1.28552E+04
  2.21685E+02 -1.12595E+03 -8.16972E+03  8.46594E+03 -2.07191E+04  3.82029E+03 -2.08233E+04 -1.07829E+04
 -1.25849E+04 -2.45453E+04  6.48094E+03 -2.90585E+04  1.98127E+04 -2.04016E+04  2.35428E+04 -1.43213E+03
  1.50848E+04  1.71682E+04 -1.57559E+03  2.34187E+04 -1.72842E+04  1.38218E+04 -2.44017E+04 -5.03818E+03
 -1.69153E+04 -2.12122E+04 -2.59540E+03 -2.92635E+04  1.33862E+04 -2.38072E+04  2.37747E+04 -1.33060E+04
  2.23779E+04 -1.08384E+03  1.59665E+04  4.59776E+03  9.19623E+03  2.15054E+03  1.24520E+04 -2.80402E+03
  2.26667E+04  2.21530E+03  2.71048E+04  1.91169E+04  1.81092E+04  3.94878E+04 -3.25130E+03  4.66555E+04
 -2.70474E+04  3.89306E+04 -4.36423E+04  2.00550E+04 -4.66523E+04 -3.82826E+03 -3.83260E+04 -2.80674E+04
 -1.53906E+04 -3.98853E+04  1.37934E+04 -3.43531E+04  2.91874E+04 -1.54680E+04  2.55202E+04  8.42683E+03
  7.57349E+03  2.03251E+04 -1.20976E+04  1.64465E+04 -2.16398E+04  2.67704E+03 -1.54059E+04 -1.32467E+04
 -2.94888E+01 -1.99832E+04  1.13433E+04 -1.44399E+04  1.45595E+04 -1.64119E+03  3.01132E+03  9.45399E+03
 -8.72061E+03  4.11508E+03 -1.03993E+04 -7.81183E+03 -2.05665E+03 -1.87464E+04  1.30945E+04 -2.13330E+04
  2.46143E+04 -1.17691E+04  2.78330E+04  3.87425E+03  2.51839E+04  1.96800E+04  1.18494E+04  3.05699E+04
 -6.18517E+03  3.22905E+04 -2.21784E+04  2.03622E+04 -2.45744E+04  4.23263E+03 -1.62886E+04 -6.69896E+03
 -6.88197E+03 -8.02109E+03 -7.05639E+02  2.62808E+02 -3.16198E+03  4.08133E+03 -8.35636E+03  5.81050E+03
 -1.46191E+04 -3.81704E+02 -1.60448E+04 -1.17008E+04 -6.51001E+03 -2.04537E+04  7.20620E+03 -1.68963E+04
  1.39934E+04 -6.54623E+03  9.76191E+03  4.23341E+03 -8.32092E+02  6.49146E+03 -7.63679E+03  1.11927E+02
 -7.65962E+03 -1.07836E+04 -6.31275E+02 -1.52866E+04  9.58646E+03 -1.73216E+04  2.11178E+04 -1.00291E+04
  2.51905E+04  2.49144E+03  1.79741E+04  1.52909E+04  3.29979E+03  2.05419E+04 -1.01830E+04  1.62800E+04
 -1.38553E+04  4.94250E+03 -6.86963E+03 -4.32862E+03  2.27010E+03 -4.99277E+03  8.83304E+03 -8.52111E+02
  8.13871E+03  6.97075E+03  1.23900E+03  1.36509E+04 -9.66318E+03  1.29289E+04 -1.63251E+04  2.54054E+03
 -1.21175E+04 -8.98006E+03  3.35810E+02 -1.51979E+04  9.49089E+03 -7.68238E+03  9.66389E+03  2.47269E+03
  2.32541E+03  1.04916E+04 -7.98414E+03  1.20973E+04 -1.43434E+04  5.81437E+03 -1.47108E+04 -6.13219E+03
 -7.95422E+03 -1.67382E+04  4.53757E+03 -1.94733E+04  1.64010E+04 -1.24081E+04  1.76622E+04  2.77237E+03
  1.06246E+04  1.51753E+04 -2.21067E+03  1.64902E+04 -1.23695E+04  9.40691E+03 -1.45444E+04 -1.14371E+03
 -1.03947E+04 -1.13754E+04 -1.49119E+03 -1.32025E+04  7.15602E+03 -1.03185E+04  9.01583E+03 -4.06824E+03
  5.25477E+03  2.10095E+03 -1.68787E+03  2.76947E+03 -9.43728E+02 -3.15195E+03  2.39138E+03 -8.46856E+03
  1.28274E+04 -5.65637E+03  1.76560E+04  1.49012E+03  1.80114E+04  1.24174E+04  1.00088E+04  2.15305E+04
 -4.77991E+03  2.64634E+04 -2.20112E+04  1.71865E+04 -2.80825E+04  3.05891E+03 -2.26735E+04 -1.00980E+04
 -1.09802E+04 -1.83921E+04 -3.21805E+02 -1.57853E+04  6.07648E+03 -8.32961E+03  6.26946E+03 -5.60307E+03
  4.07238E+03 -2.86329E+03  4.22975E+03 -4.68071E+03  6.15904E+03 -4.07889E+03  8.55297E+03 -2.15656E+03
  1.11653E+04  3.35025E+03  7.04937E+03  9.54950E+03 -2.39411E+03  1.24292E+04 -1.21674E+04  9.75594E+03
 -1.56216E+04 -2.06199E+03 -1.05731E+04 -1.10169E+04 -1.23522E+03 -1.68122E+04  9.75422E+03 -1.61789E+04
  1.81075E+04 -8.94143E+03  2.07876E+04  2.50346E+03  1.46890E+04  1.51371E+04  2.41277E+03  1.94006E+04
 -7.35365E+03  1.61358E+04 -1.11852E+04  5.14648E+03 -7.90879E+03 -1.82242E+03 -3.33786E+03 -2.89113E+03
 -1.81089E+03  7.48198E+02 -2.23915E+03  2.83677E+03 -7.10346E+03  1.82995E+03 -1.05288E+04 -1.73980E+03
 -8.31244E+03 -1.00508E+04  1.48128E+02 -1.57424E+04  1.04147E+04 -1.52308E+04  1.62253E+04 -4.63567E+03
  1.49508E+04  7.80144E+03  7.57102E+03  1.46821E+04 -2.23105E+03  1.58399E+04 -1.25717E+04  9.68433E+03
 -1.52707E+04  9.41258E+02 -1.20058E+04 -1.01202E+04 -8.46044E+02 -1.32759E+04  7.00284E+03 -1.00995E+04
  1.10637E+04 -3.06400E+03  6.95366E+03  3.50550E+03  2.04677E+03  4.52221E+03  1.87352E+03  1.92887E+03
  2.55491E+03  1.21775E+03  4.63809E+03  2.36245E+03  4.33757E+03  5.76494E+03  4.81114E+03  8.19450E+03
 -3.25861E+03  1.26543E+04 -1.15626E+04  1.24507E+04 -1.70310E+04  3.58815E+03 -1.68913E+04 -6.70732E+03
 -8.11601E+03 -1.64420E+04  2.56613E+03 -1.69496E+04  1.00979E+04 -1.08616E+04  1.33321E+04 -3.16317E+03
  9.93272E+03  5.79832E+03  2.28297E+03  9.87442E+03 -4.86613E+03  5.91100E+03 -6.98941E+03 -7.16642E+02
 -3.52805E+03 -7.05831E+03  3.86148E+03 -7.01509E+03  6.33211E+03 -3.28999E+03  6.63019E+03  1.90309E+03
  4.12212E+03  3.21618E+03  1.82614E+03  2.87680E+03 -1.06290E+03  2.46356E+03  1.98300E+03 -1.19304E+02
  3.05238E+03 -1.44616E+03  6.98933E+03  3.23681E+03  4.14485E+03  9.23238E+03 -1.48032E+03  1.09147E+04
 -7.87775E+03  7.76179E+03 -1.03236E+04  2.59104E+03 -8.85107E+03 -3.75923E+03 -3.96147E+03 -6.53836E+03
  1.09570E+03 -6.49912E+03  4.42825E+03 -2.87837E+03  4.01295E+03  3.33478E+03 -1.84903E+03  6.21012E+03
 -7.46768E+03  3.12982E+03 -8.55680E+03 -4.16981E+03 -4.45868E+03 -7.96487E+03  1.52632E+03 -9.50441E+03
  5.89421E+03 -6.04875E+03  6.48131E+03 -5.49627E+02  6.01524E+03  2.01841E+03  5.17252E+02  4.51044E+03
 -3.25212E+03  1.80920E+03 -4.25912E+03 -3.14754E+03  1.76629E+03 -6.89139E+03  8.62244E+03 -5.20184E+03
  1.10367E+04  3.85693E+02  1.03579E+04  6.90547E+03  3.18119E+03  1.15690E+04 -4.03869E+03  1.11460E+04
 -9.09138E+03  5.19406E+03 -9.92251E+03 -1.10429E+03 -5.46550E+03 -6.77316E+03  1.81248E+03 -6.94207E+03
  5.94541E+03 -3.13006E+03  6.58269E+03  2.73485E+03  1.83894E+03  6.62950E+03 -6.92446E+02  5.77186E+03
 -2.34812E+03  3.17719E+03 -2.20709E+03  5.93922E+02 -1.46125E+03  1.59936E+03 -1.62444E+03  2.04399E+03
 -2.30023E+03  4.43046E+03 -7.87997E+03  3.35448E+03 -1.04495E+04  1.21148E+02 -1.15013E+04 -6.58932E+03
 -6.37207E+03 -1.45324E+04  3.39019E+03 -1.67536E+04  1.06991E+04 -1.32805E+04  1.62793E+04 -5.14169E+03
  1.56893E+04  2.50375E+03  9.09592E+03  1.02654E+04  1.88204E+03  1.17398E+04 -4.37433E+03  8.51419E+03
 -6.50750E+03  2.47762E+03 -3.58398E+03 -8.38739E+02 -9.08566E+02 -1.24113E+03 -1.01216E+03  4.81385E+01
 -9.12193E+02  2.70892E+02 -2.26016E+03 -6.96285E+02 -4.36446E+02 -2.22484E+03  9.49920E+02 -4.06011E+03
  4.86954E+03 -3.51406E+03  7.07646E+03 -8.79885E+02  8.02534E+03  5.88780E+03  2.41426E+03  1.17640E+04
 -5.64320E+03  1.36478E+04 -1.22798E+04  7.95917E+03 -1.36690E+04 -1.10952E+03 -1.02922E+04 -7.75421E+03
 -5.13830E+03 -1.09973E+04  2.60500E+03 -1.02774E+04  6.90524E+03 -5.94571E+03  7.03471E+03  5.44889E+02
  3.89008E+03  3.68213E+03 -3.87527E+02  2.36246E+03 -1.84003E+03  5.88255E+01  5.53164E+02 -1.87234E+03
  3.09580E+03 -1.59390E+03  4.53431E+03  1.64754E+03  2.79492E+03  5.35762E+03 -5.78935E+01  6.01873E+03
 -5.20299E+03  6.38552E+03 -6.96936E+03  6.50903E+02 -7.65369E+03 -5.77634E+03 -8.52651E+02 -9.00420E+03
  4.74495E+03 -7.67576E+03  8.66306E+03 -1.47855E+03  8.75013E+03  2.47911E+03  5.43902E+03  6.98174E+03
  1.22594E+03  7.52778E+03 -3.35330E+03  6.16450E+03 -4.79021E+03  3.97799E+03 -4.01828E+03  4.45606E+01
 -1.88761E+03 -8.49286E+02 -2.04905E+03  7.04979E+02 -3.71022E+03  2.18347E+03 -5.88389E+03 -8.47204E+02
 -5.80916E+03 -3.29676E+03 -1.40703E+03 -7.02126E+03  3.79855E+03 -7.24984E+03  6.94207E+03 -3.63272E+03
  7.59562E+03  8.48353E+02  4.25386E+03  5.73113E+03 -5.82572E+01  7.44617E+03 -5.22550E+03  5.59662E+03
