 $NMID ID='MM_0lb_SNR400_7hz_g55_39.RAW', FMTDAT='(8E13.5)'
 TRAMP=1., VOLUME=1. $END
  3.09927E+05  1.32356E+02  3.38763E+05  2.50653E+05  8.57193E+04  3.38290E+05 -1.32972E+05  2.52139E+05
 -1.91775E+05  8.41331E+04 -1.12477E+05 -3.17818E+04 -3.76366E+02 -5.15926E+04  5.32240E+04 -9.99378E+01
  3.59251E+04  5.21195E+04 -1.67077E+04  7.67225E+04 -6.18954E+04  6.45413E+04 -8.60870E+04  3.36552E+04
 -8.25666E+04 -1.19487E+04 -5.80657E+04 -5.27716E+04 -1.50375E+04 -7.19391E+04  2.73186E+04 -4.75153E+04
  4.16019E+04  4.35704E+03  1.67352E+04  4.88100E+04 -3.46103E+04  4.84786E+04 -6.82190E+04 -8.18126E+01
 -5.60112E+04 -5.78457E+04 -7.23893E+03 -7.96381E+04  3.62675E+04 -5.74156E+04  5.14788E+04 -1.77542E+04
  4.64080E+04  1.16646E+04  3.30215E+04  2.66473E+04  1.59921E+04  3.14794E+04 -6.82817E+03  2.87242E+04
 -2.31537E+04  1.14932E+04 -1.75043E+04 -6.53773E+03  7.09876E+03 -6.41477E+03  2.34306E+04  1.40032E+04
  7.85072E+03  3.85519E+04 -3.41582E+04  3.76748E+04 -6.69774E+04  2.63558E+03 -5.96338E+04 -4.50959E+04
 -1.21945E+04 -6.68653E+04  4.31468E+04 -4.85967E+04  6.26685E+04 -3.55431E+03  3.77705E+04  3.52385E+04
 -5.42764E+03  4.12952E+04 -3.30859E+04  1.98316E+04 -3.42491E+04 -2.44675E+03 -2.05672E+04 -1.14977E+04
 -9.66897E+03 -1.60154E+04  7.53734E+01 -1.98108E+04  8.69744E+03 -2.36722E+04  1.58328E+04 -1.31277E+04
  1.00901E+04  6.24641E+03 -1.15494E+04  1.33998E+04 -2.48735E+04 -8.02975E+03 -8.27426E+03 -3.88246E+04
  2.62310E+04 -4.83848E+04  5.36522E+04 -2.11024E+04  4.97004E+04  2.21020E+04  1.82912E+04  4.91503E+04
 -1.71966E+04  3.83052E+04 -2.88488E+04  3.00954E+03 -1.28464E+04 -3.01373E+04  2.23647E+04 -3.87320E+04
  4.65418E+04 -1.21684E+04  4.30894E+04  2.55654E+04  2.28624E+04  5.33851E+04 -8.57432E+03  5.76395E+04
 -3.70414E+04  4.07967E+04 -5.01544E+04  1.16276E+04 -4.96093E+04 -1.94558E+04 -2.78448E+04 -4.50077E+04
  7.34583E+03 -4.48496E+04  3.66535E+04 -1.67260E+04  3.33730E+04  1.17192E+04  5.65329E+03  2.28732E+04
 -1.36576E+04  1.04792E+04 -1.18578E+04 -6.58169E+03  6.05707E+03 -1.23533E+04  1.91401E+04  5.20012E+03
  1.58269E+04  2.34113E+04 -4.22556E+03  2.73341E+04 -2.49543E+04  1.66746E+04 -3.37211E+04 -2.20068E+03
 -2.76198E+04 -1.97889E+04 -1.33669E+04 -2.69402E+04  4.68644E+03 -2.88964E+04  2.15373E+04 -2.50847E+04
  3.52632E+04 -1.48066E+04  4.07554E+04  6.95850E+03  2.90364E+04  2.75956E+04  4.14428E+03  4.31800E+04
 -2.04037E+04  3.55679E+04 -3.21342E+04  1.31301E+04 -2.31483E+04 -9.29357E+03 -4.70182E+03 -1.29418E+04
  7.57046E+02 -8.38492E+02 -9.21263E+03  8.92171E+03 -2.18312E+04  5.68959E+03 -2.22921E+04 -1.05118E+04
 -1.28484E+04 -2.53245E+04  6.34055E+03 -2.95793E+04  2.15341E+04 -2.17959E+04  2.52395E+04 -2.43482E+03
  1.60915E+04  1.86249E+04 -1.92195E+03  2.46960E+04 -1.92017E+04  1.45671E+04 -2.62051E+04 -5.30236E+03
 -1.83222E+04 -2.25291E+04 -3.46940E+03 -3.02400E+04  1.40728E+04 -2.54661E+04  2.50172E+04 -1.34935E+04
  2.41793E+04  1.03364E+02  1.81149E+04  6.06744E+03  1.13120E+04  9.77530E+02  1.46098E+04 -1.95562E+03
  2.52658E+04  3.51267E+03  2.80565E+04  1.96878E+04  1.91732E+04  4.09345E+04 -2.58654E+03  4.93997E+04
 -2.85135E+04  4.16202E+04 -4.79562E+04  2.20338E+04 -5.04185E+04 -4.19737E+03 -4.06888E+04 -2.94189E+04
 -1.55862E+04 -4.22228E+04  1.45306E+04 -3.72699E+04  3.13995E+04 -1.70466E+04  2.69582E+04  9.48171E+03
  8.55528E+03  2.09005E+04 -1.24541E+04  1.70780E+04 -2.23066E+04  2.69381E+03 -1.71709E+04 -1.44983E+04
 -3.42742E+02 -2.13112E+04  1.16505E+04 -1.58374E+04  1.50188E+04 -2.12803E+03  4.36746E+03  1.06688E+04
 -1.03120E+04  5.18526E+03 -1.06880E+04 -8.14086E+03 -2.75794E+03 -2.06623E+04  1.28698E+04 -2.23997E+04
  2.60331E+04 -1.33681E+04  3.01078E+04  2.68707E+03  2.71565E+04  2.23918E+04  1.21092E+04  3.39164E+04
 -5.90221E+03  3.59985E+04 -2.37238E+04  2.27837E+04 -2.65051E+04  4.60896E+03 -1.73783E+04 -7.12319E+03
 -6.81296E+03 -8.59377E+03 -5.59177E+02  7.35833E+02 -3.37247E+03  3.69266E+03 -8.49317E+03  5.81141E+03
 -1.56979E+04 -6.29263E+02 -1.71846E+04 -1.27960E+04 -6.40142E+03 -2.15542E+04  7.08681E+03 -1.80683E+04
  1.55263E+04 -7.16350E+03  1.08273E+04  5.06853E+03 -4.31394E+02  7.74510E+03 -9.96369E+03  7.33173E+02
 -9.08182E+03 -1.07144E+04 -1.42905E+03 -1.81094E+04  1.09449E+04 -1.86962E+04  2.30560E+04 -9.69611E+03
  2.78823E+04  3.38178E+03  1.91414E+04  1.72667E+04  3.68843E+03  2.30564E+04 -1.11649E+04  1.76082E+04
 -1.49697E+04  5.76285E+03 -8.03667E+03 -4.99318E+03  2.62329E+03 -5.43945E+03  8.60477E+03 -1.15394E+03
  7.41653E+03  7.94547E+03  1.06508E+03  1.53405E+04 -1.17661E+04  1.36390E+04 -1.82322E+04  3.52170E+03
 -1.20516E+04 -1.00898E+04  5.27609E+02 -1.59238E+04  9.59679E+03 -8.30704E+03  1.16365E+04  4.32990E+03
  2.48462E+03  1.32746E+04 -9.50911E+03  1.42834E+04 -1.58569E+04  6.69645E+03 -1.73409E+04 -6.23410E+03
 -9.80888E+03 -1.96194E+04  5.00921E+03 -2.16683E+04  1.89630E+04 -1.32693E+04  2.02042E+04  3.37196E+03
  1.08403E+04  1.63514E+04 -2.41942E+03  1.86801E+04 -1.35332E+04  1.02519E+04 -1.62661E+04 -2.44292E+03
 -1.20233E+04 -1.27459E+04 -1.97430E+03 -1.43845E+04  7.83041E+03 -1.13801E+04  9.39373E+03 -3.88485E+03
  5.75752E+03  3.49716E+03 -1.36129E+03  1.92251E+03 -1.45662E+03 -4.32604E+03  2.67893E+03 -1.01551E+04
  1.43203E+04 -6.24553E+03  2.06401E+04  2.21823E+03  1.93870E+04  1.38908E+04  1.21571E+04  2.58998E+04
 -5.86661E+03  3.00808E+04 -2.46309E+04  2.16136E+04 -3.16267E+04  4.26589E+03 -2.57821E+04 -1.13512E+04
 -1.22639E+04 -2.18840E+04 -3.14425E+02 -1.76708E+04  7.15195E+03 -1.06205E+04  6.81370E+03 -6.61432E+03
  5.03192E+03 -3.66284E+03  4.05205E+03 -4.55342E+03  6.61374E+03 -5.07051E+03  1.03172E+04 -2.57902E+03
  1.31692E+04  2.70938E+03  6.83383E+03  1.11964E+04 -1.59691E+03  1.52938E+04 -1.39889E+04  1.09365E+04
 -1.87526E+04 -6.66055E+02 -1.28258E+04 -1.24782E+04 -1.28453E+03 -2.05954E+04  1.13462E+04 -2.03007E+04
  2.10250E+04 -1.10640E+04  2.48448E+04  2.90483E+03  1.75774E+04  1.76513E+04  2.33010E+03  2.32948E+04
 -9.86757E+03  1.79944E+04 -1.36175E+04  6.91778E+03 -1.04869E+04 -2.12313E+03 -3.91771E+03 -2.45397E+03
 -1.00465E+03  1.66669E+01 -3.38500E+03  3.23888E+03 -7.25376E+03  3.34690E+03 -1.22988E+04 -2.42700E+03
 -9.54900E+03 -1.16578E+04 -8.61262E+02 -1.84488E+04  1.17146E+04 -1.76219E+04  2.04312E+04 -5.31973E+03
  1.96697E+04  8.80519E+03  9.15679E+03  1.74419E+04 -3.99152E+03  1.95593E+04 -1.41124E+04  1.19032E+04
 -1.86724E+04 -1.43231E+02 -1.44192E+04 -1.22716E+04 -1.54492E+03 -1.56380E+04  8.47141E+03 -1.21599E+04
  1.28025E+04 -3.93065E+03  8.34793E+03  3.52142E+03  4.17698E+03  5.39898E+03  1.25035E+03  3.67352E+03
  3.04805E+03  2.32018E+03  4.66807E+03  3.04436E+03  6.52650E+03  5.95585E+03  4.70431E+03  1.09299E+04
 -4.87570E+03  1.57604E+04 -1.38002E+04  1.49945E+04 -2.06047E+04  3.50104E+03 -2.14577E+04 -9.26452E+03
 -1.03380E+04 -2.04354E+04  2.86223E+03 -2.20180E+04  1.15834E+04 -1.41833E+04  1.61194E+04 -4.13534E+03
  1.19399E+04  6.83115E+03  2.91991E+03  1.20346E+04 -6.38652E+03  6.61069E+03 -9.22229E+03 -1.26847E+03
 -4.28689E+03 -9.06150E+03  4.35888E+03 -8.86424E+03  8.84679E+03 -5.64581E+03  8.27786E+03  1.90991E+03
  4.70815E+03  5.78814E+03  1.36100E+03  3.35818E+03 -1.20902E+03  3.04066E+03  8.18411E+02 -6.17275E+02
  2.69995E+03 -1.47158E+03  7.23917E+03  3.01279E+03  5.01389E+03  1.10268E+04 -1.03998E+03  1.43489E+04
 -1.02269E+04  9.97298E+03 -1.27800E+04  3.24571E+03 -1.18374E+04 -4.25191E+03 -3.87638E+03 -8.36194E+03
  1.33027E+03 -8.06198E+03  5.98126E+03 -4.08874E+03  4.47124E+03  3.77703E+03 -1.85014E+03  7.46551E+03
 -9.05940E+03  4.41643E+03 -1.02119E+04 -5.17458E+03 -5.63981E+03 -1.10629E+04  2.11814E+03 -1.17886E+04
  7.00391E+03 -7.62874E+03  8.89186E+03 -2.81410E+02  6.23666E+03  3.04158E+03  6.57817E+02  6.18055E+03
 -3.56149E+03  1.08221E+03 -4.68710E+03 -3.94189E+03  1.54517E+03 -9.54978E+03  1.02580E+04 -7.24640E+03
  1.38429E+04  1.14121E+03  1.20180E+04  9.78483E+03  3.63588E+03  1.42592E+04 -4.86777E+03  1.43287E+04
 -1.19453E+04  6.20683E+03 -1.22245E+04 -2.00985E+03 -5.72879E+03 -9.89478E+03  1.27353E+03 -8.43053E+03
  8.68892E+03 -4.28579E+03  7.11353E+03  3.86972E+03  2.61621E+03  7.36578E+03 -2.29319E+03  5.81003E+03
 -2.98243E+03  4.60662E+03 -3.75850E+03  5.96238E+02 -2.53029E+03  1.32413E+03 -2.65462E+03  2.25899E+03
 -4.26358E+03  3.94967E+03 -8.69958E+03  4.84589E+03 -1.48526E+04  4.72121E+02 -1.58478E+04 -8.78560E+03
 -9.03339E+03 -1.97076E+04  3.60005E+03 -2.16897E+04  1.42219E+04 -1.70472E+04  2.10007E+04 -5.44509E+03
  1.98841E+04  4.40496E+03  1.19530E+04  1.38615E+04  1.29167E+03  1.51021E+04 -6.20371E+03  1.07705E+04
 -8.31276E+03  4.13180E+03 -5.05430E+03 -1.73238E+03 -1.68629E+03 -1.33434E+03 -1.19784E+03 -6.23366E+02
 -2.63603E+03  5.42937E+02 -3.36684E+03 -7.73464E+02 -1.48878E+03 -3.71271E+03  1.14915E+02 -5.58720E+03
  7.65590E+03 -4.69783E+03  9.31660E+03  7.51563E+02  1.21489E+04  7.74282E+03  2.98793E+03  1.48878E+04
 -7.78287E+03  1.74227E+04 -1.57601E+04  9.99968E+03 -1.94665E+04 -1.15279E+03 -1.40781E+04 -1.14133E+04
 -5.81342E+03 -1.60316E+04  4.57964E+03 -1.48269E+04  1.03094E+04 -8.78267E+03  9.02026E+03  3.70031E+02
  6.90873E+03  4.72673E+03 -1.18720E+03  4.39595E+03 -3.57581E+03 -5.58912E+02  4.13320E+02 -2.84171E+03
  4.28064E+03 -2.13245E+03  6.00717E+03  2.66821E+03  5.17284E+03  7.41489E+03  5.15760E+02  9.01898E+03
 -7.08505E+03  6.91342E+03 -1.05164E+04  1.49788E+03 -9.65683E+03 -7.98561E+03 -1.65682E+03 -1.31338E+04
  8.09848E+03 -1.17440E+04  1.26516E+04 -3.68667E+03  1.24388E+04  4.69555E+03  7.96249E+03  9.58657E+03
  1.39667E+03  1.04130E+04 -5.91566E+03  8.37504E+03 -8.00986E+03  4.78837E+03 -6.42189E+03  3.93793E+02
 -3.62613E+03 -4.89064E+01 -3.51651E+03  1.21513E+03 -6.26680E+03  2.15400E+03 -8.93358E+03 -1.61031E+03
 -8.57674E+03 -6.10632E+03 -3.11813E+03 -1.07993E+04  4.87691E+03 -1.11169E+04  1.00686E+04 -5.76803E+03
  1.18975E+04  2.21029E+03  5.45133E+03  8.62327E+03 -7.12683E+02  1.11958E+04 -8.12237E+03  7.09996E+03
