 $NMID ID='MM_0lb_SNR400_18hz_g50_20.RAW', FMTDAT='(8E13.5)'
 TRAMP=1., VOLUME=1. $END
  3.09836E+05  7.53296E+02  3.37292E+05  2.49877E+05  8.45258E+04  3.36874E+05 -1.32525E+05  2.50738E+05
 -1.90054E+05  8.25505E+04 -1.10731E+05 -3.24168E+04  1.34690E+03 -5.01494E+04  5.36905E+04 -7.67954E+01
  3.52009E+04  5.30807E+04 -1.72535E+04  7.47589E+04 -6.04794E+04  6.29474E+04 -8.32257E+04  3.11774E+04
 -8.02096E+04 -1.09548E+04 -5.63949E+04 -5.06588E+04 -1.47528E+04 -6.87448E+04  2.67735E+04 -4.52639E+04
  3.97307E+04  3.79275E+03  1.57667E+04  4.69163E+04 -3.46296E+04  4.56516E+04 -6.54998E+04 -5.83386E+02
 -5.19910E+04 -5.58413E+04 -6.27322E+03 -7.56385E+04  3.33177E+04 -5.39339E+04  4.75215E+04 -1.64943E+04
  4.22018E+04  1.08682E+04  3.08668E+04  2.45376E+04  1.55711E+04  2.90466E+04 -4.71623E+03  2.69563E+04
 -2.18883E+04  1.31653E+04 -1.89619E+04 -4.72973E+03  4.17424E+03 -8.17876E+03  2.14917E+04  1.13879E+04
  8.08001E+03  3.38307E+04 -3.08931E+04  3.43323E+04 -6.21028E+04  1.80518E+03 -5.58423E+04 -4.15148E+04
 -1.20854E+04 -6.13146E+04  3.82286E+04 -4.43483E+04  5.65182E+04 -1.93334E+03  3.27574E+04  3.05160E+04
 -6.68043E+03  3.38272E+04 -2.86703E+04  1.38889E+04 -2.77250E+04 -5.54488E+03 -1.50889E+04 -1.04164E+04
 -8.09962E+03 -1.16158E+04 -8.36621E+02 -1.69479E+04  5.99088E+03 -2.26832E+04  1.48767E+04 -1.36096E+04
  1.16855E+04  4.77373E+03 -6.39553E+03  1.37508E+04 -2.00295E+04 -3.11274E+03 -8.17340E+03 -3.14989E+04
  2.11509E+04 -4.15078E+04  4.53163E+04 -1.88068E+04  4.22611E+04  1.84531E+04  1.51092E+04  4.24507E+04
 -1.53818E+04  3.15355E+04 -2.30744E+04  1.41681E+03 -8.01786E+03 -2.66602E+04  2.09987E+04 -3.17926E+04
  3.83971E+04 -7.72693E+03  3.23116E+04  2.28718E+04  1.64457E+04  4.37079E+04 -8.09924E+03  4.67528E+04
 -2.91902E+04  3.08245E+04 -3.83009E+04  8.94935E+03 -3.92065E+04 -1.56844E+04 -2.18311E+04 -3.56101E+04
  6.70946E+03 -3.49743E+04  3.00234E+04 -1.38718E+04  2.78424E+04  1.04238E+04  2.88271E+03  1.80272E+04
 -1.37515E+04  7.68881E+03 -9.46475E+03 -7.79859E+03  5.80223E+03 -1.03347E+04  1.75104E+04  6.53880E+03
  1.26148E+04  2.19453E+04 -6.58665E+03  2.34853E+04 -2.14143E+04  9.75968E+03 -2.53762E+04 -5.75514E+03
 -1.69751E+04 -1.66505E+04 -6.31445E+03 -1.78072E+04  3.75254E+03 -1.54939E+04  1.36432E+04 -1.51937E+04
  2.29237E+04 -1.16876E+04  2.87441E+04  1.39886E+03  2.21200E+04  1.69708E+04  3.76524E+03  3.35530E+04
 -1.64333E+04  2.84248E+04 -2.64788E+04  9.30955E+03 -1.99264E+04 -1.01396E+04 -3.82514E+03 -1.36543E+04
  2.31076E+03 -3.78745E+03 -2.92710E+03  5.30391E+03 -1.39187E+04  5.25459E+03 -1.37044E+04 -6.10051E+03
 -8.58261E+03 -1.59197E+04  4.61280E+03 -1.97538E+04  1.29766E+04 -1.44156E+04  1.54196E+04 -1.18448E+03
  9.20100E+03  1.15743E+04 -5.55591E+02  1.64688E+04 -1.11312E+04  9.19909E+03 -1.53579E+04 -3.28394E+03
 -1.16432E+04 -1.50661E+04 -1.98353E+03 -1.96367E+04  8.09571E+03 -1.60299E+04  1.62475E+04 -7.45974E+03
  1.54556E+04  8.86773E+02  1.15429E+04  4.41500E+03  5.84211E+03  3.35670E+02  8.11898E+03 -9.87768E+02
  1.40902E+04  2.95277E+03  1.52719E+04  1.32644E+04  9.47328E+03  2.53541E+04 -2.53002E+03  2.79734E+04
 -1.64354E+04  2.13539E+04 -2.55798E+04  1.06592E+04 -2.62814E+04 -2.48188E+03 -2.27280E+04 -1.51070E+04
 -1.06393E+04 -2.13184E+04  6.87452E+03 -2.01932E+04  1.76900E+04 -1.12283E+04  1.58835E+04  4.59677E+03
  6.52542E+03  1.13398E+04 -7.78183E+03  1.10544E+04 -1.40290E+04  2.47395E+03 -1.10137E+04 -8.06938E+03
  1.02880E+02 -1.29793E+04  6.65995E+03 -1.00887E+04  7.93294E+03 -1.16262E+03  1.15655E+03  5.64134E+03
 -5.89618E+03  1.44657E+03 -4.31558E+03 -4.35177E+03  3.87363E+02 -1.11185E+04  8.55683E+03 -1.11277E+04
  1.32897E+04 -5.30812E+03  1.27052E+04  3.08183E+03  1.16509E+04  1.02667E+04  5.23624E+03  1.47513E+04
 -2.03344E+03  1.66034E+04 -9.63604E+03  1.09984E+04 -1.18832E+04  2.97964E+03 -8.73185E+03 -2.30235E+03
 -5.09557E+03 -3.45548E+03 -6.08817E+02  9.90496E+02 -1.77775E+03  2.08441E+03 -3.22588E+03  3.35595E+03
 -8.60122E+03 -8.22625E+02 -9.08516E+03 -7.25925E+03 -3.63281E+03 -1.24053E+04  4.22719E+03 -9.33599E+03
  7.30133E+03 -3.93626E+03  5.75176E+03  2.56550E+03  4.62559E+02  3.55756E+03 -3.90124E+03 -1.15924E+01
 -3.03730E+03 -5.44002E+03 -8.60522E+02 -7.29296E+03  4.16820E+03 -8.63124E+03  1.07252E+04 -4.26764E+03
  1.21873E+04  8.70203E+02  9.23623E+03  6.64561E+03  1.38972E+03  9.76966E+03 -5.88928E+03  8.90090E+03
 -7.30048E+03  3.18196E+03 -3.40793E+03 -1.17510E+03  1.17015E+03 -2.08614E+03  4.56521E+03 -9.05684E+02
  4.34316E+03  3.06007E+03  1.02139E+03  7.20904E+03 -4.97977E+03  6.37514E+03 -8.09371E+03  1.48767E+03
 -4.85783E+03 -3.80456E+03 -5.15227E+02 -6.98772E+03  4.38996E+03 -3.09611E+03  3.45478E+03  1.13283E+03
  3.99982E+02  4.13135E+03 -4.37219E+03  5.26491E+03 -5.03952E+03  2.51126E+03 -4.60265E+03 -1.64797E+03
 -2.95158E+03 -6.72969E+03  1.20066E+03 -7.38456E+03  6.19476E+03 -5.04056E+03  7.54741E+03  1.09150E+03
  4.80889E+03  5.83798E+03  2.68681E+02  8.02247E+03 -5.24356E+03  4.03097E+03 -5.76693E+03 -6.45010E+02
 -5.87654E+03 -5.64728E+03 -1.18027E+03 -4.95999E+03  2.10796E+03 -5.20396E+03  2.93660E+03 -2.88791E+03
  2.86848E+03  6.87219E+02  3.37829E+01  1.14292E+03  2.83930E+02 -2.60367E+02  4.15510E+02 -1.79984E+03
  3.79789E+03 -1.26545E+03  5.71390E+03  6.66188E+02  5.89552E+03  3.52819E+03  5.18984E+03  7.81191E+03
 -1.83675E+03  9.29650E+03 -7.55453E+03  6.69189E+03 -1.06575E+04  1.47975E+03 -8.27598E+03 -2.37725E+03
 -4.21106E+03 -6.84315E+03 -2.12074E+02 -5.12204E+03  1.81643E+03 -2.28614E+03  1.96952E+03 -2.76275E+03
  1.59839E+03 -1.37796E+03  1.99264E+03 -2.79201E+03  3.47328E+03 -1.53273E+03  4.37706E+03  3.40993E+02
  5.51553E+03  7.58187E+02  1.36961E+03  3.33900E+03 -1.45019E+03  3.37317E+03 -4.51082E+03  2.63910E+03
 -5.48213E+03 -1.49962E+03 -2.40945E+03 -3.46552E+03  1.50332E+02 -5.24476E+03  2.81383E+03 -5.76603E+03
  5.50058E+03 -3.03401E+03  7.61460E+03  7.25977E+02  5.30856E+03  4.18960E+03  8.40688E+02  6.82176E+03
 -2.39352E+03  6.25344E+03 -3.42716E+03  2.02053E+03 -1.45752E+03 -1.03333E+03 -6.79556E+02 -4.46327E+02
 -5.43986E+02  7.30429E+02 -7.13512E+02  2.07630E+03 -2.52836E+03  1.03746E+03 -4.35880E+03 -4.34144E+02
 -1.47510E+03 -4.33334E+03  7.20931E+02 -4.99379E+03  2.50884E+03 -4.54899E+03  4.11405E+03 -1.74878E+03
  4.63836E+03  1.89179E+03  1.94988E+03  3.60198E+03 -7.30316E+02  4.13549E+03 -2.67098E+03  3.09823E+03
 -4.30836E+03  6.75288E+02 -3.74064E+03 -2.48117E+03 -3.77744E+02 -3.73667E+03  1.56138E+03 -2.62003E+03
  2.59055E+03 -1.31971E+03  1.98287E+03  3.15225E+02  6.02295E+02  1.23693E+03  1.30461E+03  8.58103E+02
  1.43845E+03  7.27238E+02  1.51000E+03  1.32708E+03  1.31817E+03  2.29008E+03  1.20905E+03  2.31634E+03
 -7.92249E+02  3.31276E+03 -2.81954E+03  4.28961E+03 -3.22779E+03  9.55006E+02 -3.84195E+03 -8.35789E+02
 -1.68069E+03 -4.05736E+03  4.31204E+02 -5.03071E+03  2.17318E+03 -3.29423E+03  3.34917E+03 -6.47816E+02
  2.16620E+03  2.17143E+03 -2.13201E+02  2.27094E+03 -9.82272E+02  1.40546E+03 -1.40403E+03 -1.59418E+02
 -4.08444E+02 -1.97373E+03  1.07308E+03 -1.74598E+03  1.79820E+03 -1.23893E+03  9.13340E+02  3.67910E+02
  6.36052E+02  6.65943E+02  9.23820E+02 -5.55701E+02 -3.13917E+02  7.91628E+02  1.31017E+03 -6.89818E+02
  1.80263E+02  2.26924E+02  1.88324E+03  7.18936E+02 -5.73439E+01  2.33012E+03 -1.32395E+02  3.09787E+03
 -1.86079E+03  7.01584E+02 -1.81578E+03  3.48433E+02 -2.03019E+03 -1.09249E+03 -5.05139E+02 -8.94717E+02
  5.79070E+02 -1.48365E+03  1.32101E+03 -1.10922E+03  1.11692E+03  1.21560E+03 -4.06331E+02  1.24899E+03
 -1.23076E+03  6.29321E+02 -1.71408E+03 -9.03524E+02 -1.31288E+03 -2.29886E+03  3.76336E+01 -2.20967E+03
  6.75187E+02 -1.68473E+02  9.39190E+02  4.84592E+02  1.40673E+03 -4.71909E+02  8.48050E+02  1.20481E+03
 -7.73658E+02  1.60710E+02 -8.64326E+02 -3.58229E+02  5.50608E+02 -9.29716E+02  1.79658E+03 -1.15969E+03
  1.06769E+03 -1.65283E+02  2.97879E+03  7.86830E+02  1.28836E+03  1.47679E+03 -3.80395E+02  2.13679E+03
 -1.43553E+03  2.38160E+01 -1.60937E+03  2.69992E+02 -8.47775E+02 -1.53635E+03  2.65011E+02 -6.00512E+02
  1.43381E+03 -3.08304E+02  5.39239E+02  1.18853E+03  4.56454E+02  1.53910E+03  2.75253E+02  1.59533E+03
 -7.46785E+02  1.55518E+03 -1.31234E+02  4.87896E+02 -1.66442E+02  4.17601E+02 -6.09172E+02  8.11115E+02
 -1.45450E+03  1.38116E+03 -1.99103E+03  5.00103E+02 -1.62968E+03  4.09842E+02 -2.43267E+03 -7.29617E+02
 -1.27376E+03 -2.63663E+03  2.81531E+00 -2.94109E+03  1.23674E+03 -2.68042E+03  2.69176E+03 -1.21040E+03
  2.47095E+03 -1.73284E+02  1.46540E+03  1.33593E+03 -9.13020E+02  1.63781E+03 -6.59635E+02  1.77957E+03
 -1.06653E+03  1.10343E+03 -5.00062E+02  4.71709E+01 -4.56321E+02  4.69345E+02 -9.11429E+02  1.99476E+02
 -9.45474E+02 -2.77419E+01 -6.68476E+02  2.69594E+02 -2.79554E+01 -7.66472E+02 -1.04512E+02 -1.00816E+03
  1.05799E+03 -9.01545E+02  5.55689E+02  7.35513E+02  7.05855E+02  1.05194E+03 -5.80798E+02  1.70007E+03
 -1.34594E+03  1.88604E+03 -1.67053E+03  9.62117E+02 -1.77110E+03 -4.36525E+02 -1.55824E+03 -1.61351E+03
 -1.13198E+03 -1.55409E+03  2.56692E+02 -1.34598E+03  3.68462E+02 -1.40111E+03  9.65568E+02 -1.49498E+02
  2.85570E+02  5.81767E+02  2.16287E+02  5.62308E+02 -3.02231E+02 -2.49491E+02 -2.38108E+02 -9.46109E+02
  5.09258E+02  8.50036E+01 -9.49694E+01  2.74627E+02  3.20635E+02  8.07552E+02  3.66285E+02  2.74350E+02
 -4.88408E+02  7.81227E+02 -1.91560E+02  1.52363E+02 -6.95961E+02  5.69472E+01 -3.90234E+02 -1.47300E+03
  4.06815E+02 -1.17312E+03  1.29002E+02  3.01112E+02  1.01722E+03 -6.55290E+02  3.94136E+02  1.46687E+03
  4.46227E+01  7.88784E+02  3.31554E+02  1.13645E+03 -4.11252E+02  4.11528E+02 -1.03864E+02  8.19161E+01
  2.06667E+01 -3.76056E+02 -6.89413E+02  1.76344E+02 -6.43575E+02  2.19626E+02 -1.06641E+03 -6.79591E+02
 -1.12028E+03  1.52329E+02 -5.50167E+01 -1.36765E+03  8.47025E+02 -2.16381E+03  8.76407E+02 -8.57034E+00
  6.04770E+02 -3.79365E+02 -5.57579E+02  9.70555E+02  1.61056E+02  1.28805E+03 -3.89542E+02  8.33822E+02
