 $NMID ID='MM_0lb_SNR400_16hz_g40_47.RAW', FMTDAT='(8E13.5)'
 TRAMP=1., VOLUME=1. $END
  3.10175E+05  4.09445E+02  3.37354E+05  2.51010E+05  8.48350E+04  3.37006E+05 -1.32410E+05  2.50639E+05
 -1.90125E+05  8.21694E+04 -1.11212E+05 -3.33362E+04  1.93554E+03 -4.98853E+04  5.35639E+04  2.48219E+02
  3.46904E+04  5.32383E+04 -1.69531E+04  7.51846E+04 -6.00779E+04  6.25905E+04 -8.28992E+04  3.12880E+04
 -7.99293E+04 -1.11379E+04 -5.64994E+04 -5.07258E+04 -1.53818E+04 -6.89493E+04  2.72629E+04 -4.50854E+04
  3.94427E+04  4.01848E+03  1.54714E+04  4.69291E+04 -3.42024E+04  4.66835E+04 -6.57986E+04 -4.08400E+02
 -5.26114E+04 -5.64450E+04 -6.51371E+03 -7.50909E+04  3.33747E+04 -5.33915E+04  4.69023E+04 -1.67082E+04
  4.20950E+04  1.12303E+04  3.06177E+04  2.48519E+04  1.58231E+04  2.91481E+04 -5.23976E+03  2.73761E+04
 -2.16720E+04  1.28408E+04 -1.87629E+04 -4.83447E+03  4.75723E+03 -7.48382E+03  2.10602E+04  1.06621E+04
  7.54204E+03  3.36843E+04 -3.04553E+04  3.50564E+04 -6.19112E+04  2.18388E+03 -5.54360E+04 -4.21769E+04
 -1.23623E+04 -6.12968E+04  3.78582E+04 -4.33972E+04  5.59281E+04 -1.20552E+03  3.28413E+04  3.06600E+04
 -5.74883E+03  3.41261E+04 -2.89451E+04  1.42108E+04 -2.87121E+04 -5.70448E+03 -1.50412E+04 -1.00561E+04
 -8.09884E+03 -1.19583E+04 -1.15371E+03 -1.68441E+04  6.82526E+03 -2.28395E+04  1.50821E+04 -1.38226E+04
  1.20245E+04  4.58170E+03 -6.14805E+03  1.35278E+04 -1.96435E+04 -3.46354E+03 -8.07991E+03 -3.12146E+04
  2.15584E+04 -4.11599E+04  4.56888E+04 -1.86893E+04  4.30392E+04  1.84190E+04  1.44882E+04  4.28796E+04
 -1.47162E+04  3.20869E+04 -2.40468E+04  1.71716E+03 -8.22996E+03 -2.68103E+04  2.00354E+04 -3.20816E+04
  3.92974E+04 -7.29700E+03  3.30979E+04  2.30633E+04  1.64317E+04  4.28844E+04 -8.39688E+03  4.65879E+04
 -2.97763E+04  3.14521E+04 -3.86905E+04  8.59026E+03 -3.94191E+04 -1.55403E+04 -2.22070E+04 -3.54892E+04
  6.69170E+03 -3.55131E+04  2.97413E+04 -1.33785E+04  2.76374E+04  1.08062E+04  3.12296E+03  1.87660E+04
 -1.31770E+04  7.69575E+03 -1.00015E+04 -7.62643E+03  5.91698E+03 -1.02033E+04  1.79234E+04  6.39202E+03
  1.23836E+04  2.21102E+04 -5.83966E+03  2.35285E+04 -2.22318E+04  1.01001E+04 -2.53529E+04 -5.61586E+03
 -1.78497E+04 -1.66888E+04 -6.85987E+03 -1.79659E+04  4.01838E+03 -1.67383E+04  1.38969E+04 -1.62709E+04
  2.32180E+04 -1.15346E+04  2.94084E+04  2.02829E+03  2.20575E+04  1.76282E+04  3.84258E+03  3.38483E+04
 -1.62535E+04  2.91728E+04 -2.63377E+04  1.01607E+04 -1.99215E+04 -1.06821E+04 -3.91898E+03 -1.36498E+04
  2.16939E+03 -3.63934E+03 -3.05940E+03  6.26980E+03 -1.42197E+04  4.90190E+03 -1.48359E+04 -5.68045E+03
 -9.17641E+03 -1.68030E+04  5.32674E+03 -2.10044E+04  1.34598E+04 -1.48437E+04  1.59838E+04 -1.58736E+03
  1.05728E+04  1.11327E+04 -5.72126E+02  1.70510E+04 -1.13347E+04  1.01793E+04 -1.65563E+04 -3.97800E+03
 -1.20062E+04 -1.55180E+04 -1.18832E+03 -2.03264E+04  8.71702E+03 -1.64063E+04  1.75124E+04 -7.93260E+03
  1.58394E+04  4.19035E+02  1.10005E+04  4.01973E+03  5.89128E+03  5.52173E+02  8.52155E+03 -1.42679E+03
  1.56872E+04  3.70037E+03  1.60712E+04  1.35933E+04  1.03894E+04  2.64667E+04 -3.58570E+03  2.93421E+04
 -1.77384E+04  2.28472E+04 -2.70084E+04  1.13020E+04 -2.75794E+04 -2.73739E+03 -2.36959E+04 -1.62851E+04
 -1.08455E+04 -2.28665E+04  7.49926E+03 -2.13326E+04  1.85932E+04 -1.17978E+04  1.69804E+04  4.63228E+03
  6.76782E+03  1.19504E+04 -7.37870E+03  1.07985E+04 -1.46519E+04  2.84445E+03 -1.12208E+04 -8.84712E+03
 -5.65699E+02 -1.40202E+04  7.01204E+03 -9.81282E+03  8.22884E+03 -8.23067E+02  1.99650E+03  5.38409E+03
 -5.71299E+03  1.47875E+03 -4.43820E+03 -5.16261E+03  4.61035E+02 -1.12415E+04  8.90942E+03 -1.12668E+04
  1.34108E+04 -5.13155E+03  1.41753E+04  2.61117E+03  1.24679E+04  1.11634E+04  5.82045E+03  1.61200E+04
 -2.06427E+03  1.79742E+04 -1.14408E+04  1.18164E+04 -1.29096E+04  2.98427E+03 -9.04463E+03 -3.09465E+03
 -4.28935E+03 -3.83090E+03 -1.20913E+03  1.14823E+03 -2.28463E+03  2.22000E+03 -5.15355E+03  3.94051E+03
 -9.10704E+03 -6.70893E+02 -9.76927E+03 -8.33845E+03 -4.19326E+03 -1.27912E+04  3.85049E+03 -9.56160E+03
  7.80438E+03 -3.80681E+03  5.79205E+03  3.08154E+03  2.61732E+02  3.53323E+03 -3.95365E+03 -1.27926E+02
 -3.91167E+03 -6.16823E+03 -3.61107E+02 -8.88514E+03  4.69896E+03 -9.79253E+03  1.12087E+04 -4.58830E+03
  1.37535E+04  8.96534E+02  1.01858E+04  7.57738E+03  2.27488E+03  1.03861E+04 -5.75647E+03  9.64940E+03
 -7.82030E+03  2.69498E+03 -4.26464E+03 -1.47889E+03  1.31736E+03 -2.31484E+03  4.96564E+03 -8.41848E+02
  4.80095E+03  3.63119E+03  1.31361E+03  6.28028E+03 -4.81195E+03  6.89040E+03 -9.14441E+03  1.58316E+03
 -5.05773E+03 -4.40312E+03  4.66060E+02 -7.35604E+03  5.00517E+03 -3.65508E+03  4.65366E+03  8.88841E+02
  1.04712E+03  4.77184E+03 -4.30044E+03  5.98973E+03 -6.59820E+03  3.09275E+03 -6.23388E+03 -1.01693E+03
 -3.78471E+03 -7.32730E+03  1.08891E+03 -8.53350E+03  7.56192E+03 -5.32477E+03  8.27901E+03  1.41646E+03
  5.67760E+03  6.05514E+03  8.40876E+01  8.29124E+03 -5.79055E+03  4.80236E+03 -5.90862E+03 -9.99645E+02
 -6.74211E+03 -6.15532E+03 -1.14361E+03 -6.41632E+03  3.72987E+03 -5.71925E+03  3.55856E+03 -2.97431E+03
  2.90853E+03  3.25916E+02 -3.58992E+02  1.35265E+03  3.21202E+02 -4.95998E+02  2.60467E+02 -2.52548E+03
  4.58444E+03 -1.50968E+03  7.53183E+03  8.50308E+02  7.01718E+03  3.64361E+03  6.47623E+03  8.78353E+03
 -2.03602E+03  1.03801E+04 -9.33318E+03  8.08632E+03 -1.21251E+04  1.41692E+03 -9.63165E+03 -3.98871E+03
 -5.11621E+03 -8.07072E+03 -3.74610E+02 -6.62642E+03  3.17624E+03 -2.90505E+03  2.22282E+03 -2.34228E+03
  1.83083E+03 -2.10972E+03  2.26877E+03 -2.82910E+03  4.53180E+03 -1.89747E+03  4.59750E+03  9.05656E+02
  5.61099E+03  9.71740E+02  1.53924E+03  4.48193E+03 -1.64856E+03  4.14239E+03 -5.34851E+03  3.62842E+03
 -5.76135E+03 -1.42549E+03 -2.41765E+03 -4.51420E+03 -1.51268E+02 -6.38027E+03  3.83871E+03 -7.03138E+03
  6.69810E+03 -3.86670E+03  8.51707E+03  6.10954E+02  6.12853E+03  5.03161E+03  1.19544E+03  7.47797E+03
 -3.29743E+03  7.09902E+03 -3.84107E+03  2.29222E+03 -1.97349E+03 -1.31193E+03 -8.97250E+02 -6.45617E+02
 -6.96370E+02  3.69994E+02 -1.10313E+03  1.96771E+03 -3.00793E+03  1.16047E+03 -4.84754E+03 -5.81543E+02
 -2.15502E+03 -4.67505E+03  5.17275E+01 -5.72487E+03  3.27749E+03 -5.62498E+03  5.27946E+03 -1.08913E+03
  5.88975E+03  3.07878E+03  2.43617E+03  4.85602E+03 -8.02657E+02  5.72947E+03 -4.17468E+03  3.67664E+03
 -5.30410E+03  4.36844E+02 -3.91014E+03 -3.22048E+03 -3.91537E+02 -4.14205E+03  2.43516E+03 -3.97913E+03
  3.57977E+03 -1.07472E+03  2.02813E+03  5.94008E+02  9.94958E+02  1.96950E+03  9.82973E+02  5.50846E+02
  1.58748E+03  5.21671E+02  1.76008E+03  4.72650E+02  1.71379E+03  2.47526E+03  1.93070E+03  2.00534E+03
 -1.09267E+03  4.26437E+03 -3.75024E+03  4.71130E+03 -4.39121E+03  1.27294E+03 -5.43184E+03 -2.18969E+03
 -3.05076E+03 -5.09406E+03  5.76440E+02 -5.92506E+03  2.62044E+03 -4.08099E+03  4.40572E+03 -1.34415E+03
  3.71633E+03  2.03475E+03  7.79613E+02  3.03088E+03 -7.67471E+02  1.62952E+03 -1.60123E+03 -4.66870E+02
 -1.13678E+03 -2.28449E+03  1.94669E+03 -2.33975E+03  1.44690E+03 -1.05502E+03  2.19955E+03  2.19792E+02
  8.95462E+02  1.03278E+02  1.05711E+03  5.39182E+02 -8.09268E+02  5.96500E+02  1.35287E+03  2.42834E+01
  7.52477E+02 -2.59197E+02  2.94420E+03  5.96599E+02  6.84077E+02  3.34840E+03 -4.97631E+01  3.63810E+03
 -2.73620E+03  2.15420E+03 -2.84507E+03  8.07192E+02 -2.91268E+03 -6.09089E+02 -6.33708E+02 -1.36444E+03
  8.51555E+02 -1.44934E+03  1.15156E+03 -6.02315E+02  8.58753E+02  1.97174E+03 -2.65627E+02  1.70976E+03
 -1.48961E+03  8.98322E+02 -2.17439E+03 -1.88203E+03 -1.10728E+03 -3.36813E+03  3.43794E+02 -2.03282E+03
  1.34456E+03 -1.48197E+03  1.78217E+03  7.27131E+02  1.52885E+03  2.73515E+02  6.34956E+02  1.86875E+03
 -5.26233E+02  4.22576E+02 -1.31453E+03 -6.23682E+02  5.29576E+02 -1.29144E+03  2.86162E+03 -1.43638E+03
  1.91015E+03  6.46216E+02  3.35195E+03  1.29386E+03  1.48627E+03  2.36903E+03 -9.11986E+02  2.23258E+03
 -2.11799E+03  1.11952E+03 -2.99578E+03 -1.72988E+02 -7.98550E+02 -1.83150E+03  6.78335E+02 -7.73882E+02
  1.98705E+03 -1.32197E+03  1.34183E+03  1.14408E+03  5.99814E+02  2.18929E+03  3.50229E+02  1.77697E+03
 -3.78220E+02  1.33953E+03 -6.38191E+02  2.96689E+02 -2.59261E+02  6.39117E+02 -7.86017E+02  9.13508E+02
 -8.98866E+02  9.32213E+02 -2.50450E+03  7.36115E+02 -2.81314E+03  5.86154E+02 -3.49612E+03 -1.61287E+03
 -1.76052E+03 -3.53136E+03  1.15108E+03 -4.13632E+03  2.11398E+03 -3.54217E+03  3.53850E+03 -1.64079E+03
  4.00130E+03  4.64204E+02  1.68335E+03  2.93906E+03 -7.19151E+02  2.47987E+03 -1.38211E+03  1.76254E+03
 -1.68462E+03  7.79739E+02 -1.22625E+03 -2.85740E+02 -2.03982E+02  3.14278E+02 -7.05972E+02  2.70770E+02
 -8.89820E+02 -4.85359E+02 -1.10634E+03 -2.96025E+02 -2.12454E+02 -7.37692E+02  3.10012E+02 -8.64849E+02
  1.52446E+03 -1.12144E+03  1.26339E+03  6.75522E+02  2.24708E+03  1.63764E+03 -4.97841E+02  2.59744E+03
 -1.24133E+03  3.28785E+03 -2.78622E+03  1.34820E+03 -2.79765E+03 -4.46069E+02 -2.20377E+03 -2.50130E+03
 -1.27667E+03 -2.37850E+03  3.63233E+02 -2.38896E+03  1.63073E+03 -7.78663E+02  1.38572E+03  4.31654E+02
  7.68689E+02  5.94472E+02  3.21419E+02  6.77046E+02 -4.22526E+02 -1.34485E+01 -6.12837E+02 -1.22192E+02
  1.09969E+03  2.67995E+01  5.45087E+02  1.32003E+02  6.73576E+02  8.13421E+02  3.72459E+02  9.84719E+02
 -1.94754E+03  1.45572E+03 -1.54322E+03  1.86851E+02 -1.98728E+03 -8.00750E+02 -1.75720E+02 -1.52790E+03
  5.64590E+02 -1.16621E+03  1.22118E+03 -7.13061E+02  2.06142E+03 -3.04860E+01  7.81297E+02  9.32544E+02
 -1.18246E+02  4.77583E+02 -1.36677E+02  1.52139E+03 -1.05584E+03  7.77304E+02 -1.04095E+03  3.02447E+02
  1.15651E+02 -1.18688E+02 -7.42911E+02  2.18882E+02 -1.54422E+03  6.19103E+02 -8.09279E+02  4.53658E+02
 -1.33257E+03 -3.24074E+02 -7.62508E+02 -1.75794E+03  7.82172E+01 -2.27708E+03  1.31434E+03 -4.88361E+00
  2.02028E+03 -1.13901E+02  8.98604E+01  8.92994E+02 -4.70148E+01  1.16860E+03 -7.62614E+02  1.40423E+03
