 $NMID ID='MM_0lb_SNR400_14hz_g45_27.RAW', FMTDAT='(8E13.5)'
 TRAMP=1., VOLUME=1. $END
  3.10149E+05  2.56335E+02  3.37617E+05  2.50867E+05  8.50329E+04  3.38279E+05 -1.32171E+05  2.50982E+05
 -1.90110E+05  8.30679E+04 -1.11311E+05 -3.35159E+04  7.66276E+02 -5.04484E+04  5.43955E+04  2.34929E+01
  3.59353E+04  5.28442E+04 -1.65924E+04  7.49348E+04 -6.07973E+04  6.31501E+04 -8.44540E+04  3.13043E+04
 -8.13048E+04 -1.08112E+04 -5.71073E+04 -5.07691E+04 -1.49063E+04 -6.97993E+04  2.74281E+04 -4.54270E+04
  4.00592E+04  3.76017E+03  1.65673E+04  4.70816E+04 -3.40929E+04  4.72036E+04 -6.66732E+04 -2.09520E+02
 -5.31179E+04 -5.67247E+04 -6.86798E+03 -7.67865E+04  3.40914E+04 -5.49982E+04  4.80585E+04 -1.72453E+04
  4.31431E+04  1.11262E+04  3.18278E+04  2.54288E+04  1.55945E+04  2.86653E+04 -5.48729E+03  2.73168E+04
 -2.25085E+04  1.26203E+04 -1.81307E+04 -5.39011E+03  4.98040E+03 -7.11051E+03  2.16171E+04  1.21786E+04
  7.61632E+03  3.51150E+04 -3.18782E+04  3.54049E+04 -6.29785E+04  1.71466E+03 -5.65648E+04 -4.27388E+04
 -1.21481E+04 -6.29307E+04  3.99887E+04 -4.50723E+04  5.76411E+04 -2.13952E+03  3.38447E+04  3.21530E+04
 -6.43062E+03  3.50518E+04 -2.99231E+04  1.57570E+04 -2.97511E+04 -4.60013E+03 -1.57324E+04 -1.12329E+04
 -8.61659E+03 -1.35035E+04 -7.32485E+02 -1.82369E+04  7.21736E+03 -2.25411E+04  1.52824E+04 -1.36457E+04
  1.22911E+04  5.30674E+03 -7.82269E+03  1.31979E+04 -2.09266E+04 -4.43820E+03 -7.94524E+03 -3.35342E+04
  2.26798E+04 -4.30758E+04  4.72960E+04 -1.92259E+04  4.46280E+04  1.95282E+04  1.52444E+04  4.32816E+04
 -1.58750E+04  3.36549E+04 -2.48223E+04  2.01460E+03 -9.07313E+03 -2.79523E+04  2.05913E+04 -3.34945E+04
  4.09940E+04 -8.77702E+03  3.52903E+04  2.38009E+04  1.79780E+04  4.60520E+04 -8.31599E+03  4.96747E+04
 -3.10317E+04  3.30028E+04 -4.10294E+04  9.12693E+03 -4.20754E+04 -1.67042E+04 -2.35511E+04 -3.73778E+04
  6.99064E+03 -3.79027E+04  3.09822E+04 -1.44697E+04  2.80185E+04  1.07973E+04  3.98515E+03  1.88041E+04
 -1.34041E+04  7.63844E+03 -1.06588E+04 -7.82428E+03  5.59772E+03 -1.05742E+04  1.76805E+04  5.96530E+03
  1.34543E+04  2.24393E+04 -5.64556E+03  2.44934E+04 -2.20297E+04  1.10709E+04 -2.79153E+04 -4.52844E+03
 -2.05520E+04 -1.64189E+04 -8.22860E+03 -2.02627E+04  3.65765E+03 -1.89548E+04  1.50057E+04 -1.77619E+04
  2.59831E+04 -1.30471E+04  3.23768E+04  2.80660E+03  2.31750E+04  1.97823E+04  4.22689E+03  3.64590E+04
 -1.78432E+04  2.97561E+04 -2.70449E+04  1.03698E+04 -2.08014E+04 -9.96909E+03 -3.84439E+03 -1.28196E+04
  1.78297E+03 -3.14557E+03 -4.73381E+03  6.20181E+03 -1.57667E+04  5.54599E+03 -1.64230E+04 -6.33986E+03
 -9.61252E+03 -1.87750E+04  5.20336E+03 -2.28523E+04  1.49150E+04 -1.56504E+04  1.75995E+04 -1.67051E+03
  1.15418E+04  1.24131E+04 -8.62603E+02  1.89856E+04 -1.31016E+04  1.06346E+04 -1.89608E+04 -4.03594E+03
 -1.35746E+04 -1.63837E+04 -1.60575E+03 -2.26050E+04  1.04890E+04 -1.82774E+04  1.89913E+04 -9.25699E+03
  1.73379E+04 -3.96034E+01  1.22756E+04  4.41370E+03  6.37531E+03  7.72849E+02  9.23192E+03 -1.21317E+03
  1.72167E+04  2.99085E+03  1.92639E+04  1.52361E+04  1.23726E+04  2.94702E+04 -2.56364E+03  3.30321E+04
 -1.92610E+04  2.71367E+04 -3.10142E+04  1.31914E+04 -3.29179E+04 -2.51463E+03 -2.79062E+04 -1.85241E+04
 -1.17366E+04 -2.70423E+04  9.28734E+03 -2.41839E+04  2.06466E+04 -1.20607E+04  1.85322E+04  5.44749E+03
  7.28894E+03  1.32327E+04 -8.86103E+03  1.23300E+04 -1.64144E+04  2.61026E+03 -1.20305E+04 -1.04078E+04
 -3.46081E+02 -1.46950E+04  7.88636E+03 -1.11658E+04  9.96073E+03 -1.16384E+03  1.71050E+03  6.07029E+03
 -6.99081E+03  2.81888E+03 -5.56094E+03 -5.46778E+03 -2.66895E+02 -1.40968E+04  9.78226E+03 -1.40507E+04
  1.64830E+04 -7.85130E+03  1.71652E+04  2.69613E+03  1.48833E+04  1.27538E+04  7.18113E+03  1.95830E+04
 -3.07988E+03  2.13289E+04 -1.34655E+04  1.34661E+04 -1.49594E+04  3.48237E+03 -1.13445E+04 -3.99248E+03
 -5.19868E+03 -4.54599E+03 -7.85671E+02  1.39502E+03 -1.96905E+03  2.87872E+03 -4.86561E+03  3.93854E+03
 -1.01460E+04  2.84620E+01 -1.02086E+04 -8.82443E+03 -4.13321E+03 -1.45165E+04  4.70507E+03 -1.11911E+04
  9.31917E+03 -5.25056E+03  6.37987E+03  3.24575E+03 -2.82561E+02  3.94252E+03 -4.57717E+03  3.04934E+02
 -5.31441E+03 -7.28379E+03 -1.41353E+03 -1.01011E+04  6.28393E+03 -1.06462E+04  1.33450E+04 -5.90778E+03
  1.54305E+04  8.89887E+02  1.17614E+04  9.07098E+03  2.65750E+03  1.20628E+04 -6.87670E+03  1.12932E+04
 -8.36837E+03  3.21754E+03 -4.33411E+03 -1.46195E+03  1.54139E+03 -3.54126E+03  5.97227E+03 -8.17818E+02
  5.63605E+03  4.94890E+03  8.62375E+02  8.43180E+03 -6.47545E+03  8.55158E+03 -1.03735E+04  2.08839E+03
 -7.07923E+03 -5.28639E+03  1.61146E+02 -8.71027E+03  5.22866E+03 -5.02347E+03  5.20381E+03  1.60900E+03
  9.06527E+02  5.92548E+03 -5.47949E+03  6.93472E+03 -7.21883E+03  3.53547E+03 -7.63215E+03 -2.33486E+03
 -4.39322E+03 -9.81467E+03  2.39670E+03 -1.12196E+04  9.24263E+03 -6.76783E+03  1.03239E+04  1.80567E+03
  6.88795E+03  8.25341E+03 -6.44935E+02  1.03791E+04 -7.22595E+03  6.27317E+03 -7.41931E+03 -6.92884E+02
 -6.97012E+03 -6.32970E+03 -1.65351E+03 -7.37586E+03  4.11092E+03 -6.07868E+03  4.66904E+03 -2.98415E+03
  2.62796E+03  4.94102E+02 -6.50298E+02  2.33152E+03  2.42072E+02 -1.41826E+03  1.30686E+03 -3.50124E+03
  6.37093E+03 -2.39319E+03  8.88670E+03  1.48885E+03  8.82304E+03  5.86945E+03  6.78881E+03  1.25659E+04
 -3.02935E+03  1.37287E+04 -1.13920E+04  1.01936E+04 -1.53811E+04  1.19427E+03 -1.22718E+04 -4.71278E+03
 -6.47636E+03 -9.52947E+03 -5.05071E+02 -8.50458E+03  3.89770E+03 -3.81371E+03  2.80554E+03 -2.92574E+03
  1.92797E+03 -2.37799E+03  2.72395E+03 -2.84326E+03  4.91747E+03 -2.15928E+03  5.30911E+03 -2.30910E+02
  7.04910E+03  2.16022E+03  2.89464E+03  5.44725E+03 -1.94883E+03  5.70290E+03 -6.47488E+03  4.82282E+03
 -7.92819E+03 -9.89019E+02 -4.65045E+03 -6.19866E+03  8.56438E+01 -8.32792E+03  5.31376E+03 -9.59448E+03
  9.19117E+03 -4.88922E+03  1.05838E+04  1.07393E+03  7.79576E+03  7.49555E+03  1.43477E+03  9.87159E+03
 -4.21847E+03  8.99396E+03 -6.50831E+03  3.34866E+03 -3.45205E+03 -8.06171E+02 -2.04013E+03 -9.48853E+02
 -8.86920E+02 -5.61134E+02 -8.28598E+02  1.97875E+03 -4.40888E+03  1.32050E+03 -5.91755E+03 -8.80709E+02
 -3.13560E+03 -5.92469E+03  4.94711E+02 -7.79398E+03  4.28128E+03 -7.05505E+03  6.73293E+03 -1.63022E+03
  8.06152E+03  3.59578E+03  3.04202E+03  6.73463E+03 -6.53769E+02  7.45824E+03 -4.92637E+03  4.92500E+03
 -7.62183E+03  6.95999E+02 -5.37211E+03 -4.59448E+03 -8.45563E+02 -6.53047E+03  2.90867E+03 -4.31230E+03
  5.11730E+03 -2.01437E+03  3.64763E+03  1.32437E+03  3.16428E+02  2.41823E+03  1.43908E+03  6.53187E+02
  2.21385E+03  6.54124E+02  2.41126E+03  1.30119E+03  2.05227E+03  3.28675E+03  2.61006E+03  4.00393E+03
 -1.23959E+03  5.97584E+03 -5.11179E+03  6.15089E+03 -6.70762E+03  2.30766E+03 -7.52550E+03 -2.11054E+03
 -3.30649E+03 -7.43305E+03  9.87678E+02 -8.68944E+03  4.43597E+03 -5.76981E+03  5.66872E+03 -1.52001E+03
  4.91653E+03  2.79614E+03  6.57380E+02  4.70414E+03 -1.61536E+03  2.89315E+03 -2.73108E+03  4.08964E+02
 -1.59450E+03 -2.45713E+03  1.89677E+03 -3.01187E+03  2.49421E+03 -1.28862E+03  2.90720E+03  5.43479E+02
  1.44190E+03  9.43548E+02  6.67942E+02  4.02440E+02 -5.74067E+02  9.45512E+02  1.90644E+03 -9.44954E+02
  1.13751E+03 -7.36148E+02  3.80455E+03  1.01698E+03  1.75299E+03  4.10257E+03 -7.88745E+02  5.01428E+03
 -3.26742E+03  2.40784E+03 -4.33078E+03  6.34772E+02 -4.38655E+03 -9.87481E+02 -1.32226E+03 -2.87027E+03
  8.96687E+02 -2.35655E+03  2.13626E+03 -1.16870E+03  1.42842E+03  1.74542E+03 -1.16152E+03  2.89156E+03
 -2.78939E+03  1.73597E+03 -3.37895E+03 -2.35962E+03 -2.38665E+03 -4.18998E+03  1.47623E+02 -3.95025E+03
  2.10647E+03 -1.96644E+03  2.24557E+03  1.68908E+02  2.88167E+03  5.77627E+02  6.66445E+02  2.53231E+03
 -1.74832E+03  2.21570E+02 -2.05613E+03 -2.99482E+02  5.85482E+02 -2.00741E+03  3.20425E+03 -2.51993E+03
  4.14599E+03  2.25431E+02  4.42424E+03  2.53386E+03  1.65568E+03  4.23043E+03 -1.06009E+03  3.96611E+03
 -3.86946E+03  1.13576E+03 -3.60394E+03 -1.27591E+02 -1.55376E+03 -2.94837E+03  9.65083E+02 -2.39411E+03
  2.74790E+03 -1.70873E+03  1.84742E+03  1.80352E+03 -1.24450E+02  2.55153E+03 -2.19968E+01  1.94651E+03
 -7.15162E+02  1.25955E+03 -1.32947E+03  3.09647E+02 -4.04678E+02  2.98821E+02 -9.92294E+02  1.20959E+03
 -1.06089E+03  1.77221E+03 -3.01646E+03  1.29794E+03 -4.08643E+03 -1.35516E+02 -4.92990E+03 -2.69860E+03
 -2.23928E+03 -4.88401E+03  1.06238E+03 -6.37433E+03  3.20512E+03 -5.20430E+03  5.98347E+03 -1.77600E+03
  5.05146E+03  3.61785E+02  2.95014E+03  3.88426E+03  1.78587E+02  4.07707E+03 -1.82674E+03  2.69340E+03
 -2.21623E+03  1.43468E+03 -1.40310E+03 -3.73755E+01 -1.96062E+02 -6.32264E+01 -4.71327E+02  3.39730E+01
 -1.14902E+03 -5.55604E+02 -1.44772E+03 -4.10323E+02 -5.21823E+02 -1.01577E+03 -3.11817E+02 -1.48032E+03
  2.70419E+03 -8.67784E+02  1.64209E+03 -2.52497E+02  3.04560E+03  2.37330E+03 -1.61295E+02  4.34222E+03
 -2.43209E+03  4.92504E+03 -3.94239E+03  2.75853E+03 -4.42908E+03 -7.26822E+02 -3.55050E+03 -3.60600E+03
 -1.83236E+03 -4.17354E+03  1.42339E+03 -3.31170E+03  2.51501E+03 -1.86505E+03  2.20700E+03  1.06594E+02
  1.20759E+03  1.51628E+03  1.71790E+02  1.11524E+03 -5.52895E+02 -4.12724E+01  1.94741E+02 -9.83453E+02
  1.17856E+03 -3.03399E+01  9.62807E+02  8.94683E+02  8.02314E+02  1.73516E+03  5.86787E+02  1.81232E+03
 -1.43351E+03  1.53891E+03 -2.13780E+03  2.10662E+02 -1.92606E+03 -1.81714E+03 -4.75878E+02 -3.57183E+03
  1.59043E+03 -1.84955E+03  2.92241E+03 -4.06655E+02  3.04074E+03 -2.32562E+02  1.60308E+03  1.56259E+03
  4.90291E+02  2.14422E+03 -7.58073E+02  1.84419E+03 -1.49972E+03  1.28134E+03 -1.50553E+03  1.33623E+03
 -1.80646E+02 -2.58572E+02 -1.17575E+03  6.76749E+02 -1.24816E+03  1.40655E+02 -2.18731E+03 -6.84640E+02
 -2.27536E+03 -2.06689E+02 -3.72387E+02 -2.55528E+03  2.09951E+03 -3.52706E+03  2.16083E+03 -6.75068E+02
  2.47693E+03  8.08170E+01  6.93285E+02  1.45796E+03 -5.78683E+02  2.62407E+03 -1.94945E+03  1.40763E+03
