 $NMID ID='MM_0lb_SNR400_17hz_g40_72.RAW', FMTDAT='(8E13.5)'
 TRAMP=1., VOLUME=1. $END
  3.10463E+05  1.04833E+03  3.37302E+05  2.49909E+05  8.39470E+04  3.37822E+05 -1.32150E+05  2.50472E+05
 -1.89459E+05  8.22041E+04 -1.11441E+05 -3.33627E+04  1.13333E+03 -5.04202E+04  5.42130E+04  9.67788E+02
  3.49769E+04  5.27465E+04 -1.68824E+04  7.47119E+04 -6.04990E+04  6.28202E+04 -8.30990E+04  3.14385E+04
 -8.00826E+04 -1.11024E+04 -5.63704E+04 -5.04366E+04 -1.49098E+04 -6.86779E+04  2.73670E+04 -4.48398E+04
  3.86921E+04  4.34174E+03  1.58757E+04  4.71705E+04 -3.40955E+04  4.62704E+04 -6.57122E+04 -7.61981E+02
 -5.25302E+04 -5.62432E+04 -5.99611E+03 -7.56948E+04  3.22511E+04 -5.37648E+04  4.66292E+04 -1.70935E+04
  4.15340E+04  1.09768E+04  3.05084E+04  2.47267E+04  1.59561E+04  2.78453E+04 -4.48801E+03  2.66978E+04
 -2.16816E+04  1.28676E+04 -1.94125E+04 -4.71479E+03  4.55038E+03 -7.89639E+03  2.11888E+04  1.13372E+04
  7.74498E+03  3.36247E+04 -3.05769E+04  3.46593E+04 -6.12199E+04  2.55698E+03 -5.53150E+04 -4.15305E+04
 -1.17957E+04 -6.10859E+04  3.76505E+04 -4.38369E+04  5.51935E+04 -1.49792E+03  3.22034E+04  3.05713E+04
 -6.34851E+03  3.35776E+04 -2.88404E+04  1.38733E+04 -2.80935E+04 -5.02382E+03 -1.40759E+04 -1.02316E+04
 -7.06635E+03 -1.15372E+04 -6.96125E+02 -1.67664E+04  7.14321E+03 -2.25607E+04  1.51680E+04 -1.34541E+04
  1.22203E+04  4.22098E+03 -6.00873E+03  1.30919E+04 -1.96693E+04 -2.61060E+03 -7.73597E+03 -3.07197E+04
  2.13152E+04 -4.06082E+04  4.53552E+04 -1.85829E+04  4.25701E+04  1.77563E+04  1.47406E+04  4.15721E+04
 -1.50509E+04  3.12032E+04 -2.36307E+04  1.11313E+03 -8.75383E+03 -2.61851E+04  2.10885E+04 -3.15062E+04
  3.77530E+04 -6.86607E+03  3.21365E+04  2.31087E+04  1.53049E+04  4.29546E+04 -7.68250E+03  4.57320E+04
 -2.87501E+04  3.06628E+04 -3.73853E+04  8.28048E+03 -3.83902E+04 -1.53156E+04 -2.13734E+04 -3.46248E+04
  6.73757E+03 -3.50360E+04  2.99760E+04 -1.31031E+04  2.79295E+04  1.03466E+04  3.31904E+03  1.79842E+04
 -1.35498E+04  7.79768E+03 -9.74350E+03 -7.70397E+03  5.64891E+03 -1.04033E+04  1.75997E+04  6.61513E+03
  1.24246E+04  2.16318E+04 -6.35268E+03  2.33421E+04 -2.11056E+04  9.54557E+03 -2.56923E+04 -5.95608E+03
 -1.75098E+04 -1.61850E+04 -5.98041E+03 -1.71616E+04  3.85599E+03 -1.50808E+04  1.26463E+04 -1.47441E+04
  2.17250E+04 -1.17304E+04  2.82446E+04  1.80724E+03  2.17909E+04  1.65839E+04  3.73023E+03  3.31430E+04
 -1.58877E+04  2.82588E+04 -2.60292E+04  9.67492E+03 -2.00785E+04 -1.09309E+04 -4.06707E+03 -1.42058E+04
  2.58037E+03 -3.89535E+03 -3.24508E+03  5.66520E+03 -1.32243E+04  4.86704E+03 -1.37229E+04 -5.36541E+03
 -8.66367E+03 -1.59449E+04  4.76675E+03 -1.98185E+04  1.29645E+04 -1.47570E+04  1.54945E+04 -1.43266E+03
  9.51506E+03  1.15155E+04 -6.54637E+02  1.53370E+04 -1.05106E+04  8.91126E+03 -1.61714E+04 -3.11898E+03
 -1.14878E+04 -1.46872E+04 -1.92114E+03 -1.95002E+04  8.48633E+03 -1.59113E+04  1.68347E+04 -7.57456E+03
  1.53643E+04  4.16041E+02  1.10224E+04  3.69704E+03  5.31183E+03  7.01549E+02  7.61625E+03 -1.67972E+03
  1.44517E+04  3.13058E+03  1.56012E+04  1.30259E+04  9.38574E+03  2.55142E+04 -2.50957E+03  2.74449E+04
 -1.66154E+04  2.07700E+04 -2.59225E+04  1.05851E+04 -2.63746E+04 -1.79985E+03 -2.28622E+04 -1.48167E+04
 -1.01216E+04 -2.11767E+04  7.39975E+03 -1.95790E+04  1.73647E+04 -1.10449E+04  1.63357E+04  4.16055E+03
  6.65611E+03  1.11226E+04 -7.82640E+03  1.08645E+04 -1.37056E+04  2.17416E+03 -1.06864E+04 -8.27993E+03
  5.26733E+01 -1.30012E+04  6.25964E+03 -1.01791E+04  8.07240E+03 -1.17425E+03  1.82875E+03  5.60029E+03
 -5.37939E+03  1.45262E+03 -3.73094E+03 -4.73306E+03 -7.90372E+01 -1.05288E+04  7.58366E+03 -1.10184E+04
  1.26885E+04 -5.17409E+03  1.32343E+04  2.73150E+03  1.14069E+04  1.08569E+04  5.52311E+03  1.50833E+04
 -2.30891E+03  1.69078E+04 -1.02827E+04  1.06190E+04 -1.22749E+04  2.89940E+03 -9.11096E+03 -2.21212E+03
 -4.94604E+03 -3.26571E+03 -3.99979E+02  1.27311E+03 -2.54233E+03  2.28889E+03 -3.82335E+03  4.12543E+03
 -8.42679E+03 -3.08199E+02 -9.55805E+03 -7.05490E+03 -3.92831E+03 -1.19705E+04  2.92508E+03 -9.26332E+03
  7.85772E+03 -3.81918E+03  5.84741E+03  2.49728E+03  6.17687E+00  4.12990E+03 -3.61858E+03 -3.56726E+01
 -3.69540E+03 -5.29621E+03 -6.51069E+02 -8.50489E+03  4.64007E+03 -8.34849E+03  1.03003E+04 -4.41461E+03
  1.25722E+04  5.17596E+02  9.38457E+03  6.85781E+03  1.71534E+03  9.44633E+03 -5.41154E+03  8.40809E+03
 -7.67975E+03  3.32275E+03 -4.00001E+03 -8.14719E+02  2.08263E+03 -2.17218E+03  4.43417E+03 -7.83009E+02
  4.82295E+03  4.22022E+03  1.03714E+03  6.42991E+03 -4.57456E+03  6.68933E+03 -8.52932E+03  1.86868E+03
 -5.31685E+03 -3.78024E+03  3.45717E+02 -6.89798E+03  3.86552E+03 -3.66056E+03  3.25100E+03  9.23463E+02
  9.01283E+02  3.92824E+03 -4.69004E+03  5.33815E+03 -5.90006E+03  2.42070E+03 -5.35488E+03 -1.08471E+03
 -3.46629E+03 -7.11762E+03  1.33143E+03 -8.25520E+03  6.31474E+03 -5.27707E+03  7.14428E+03  1.29746E+03
  5.12721E+03  6.11870E+03  2.65081E+02  7.91901E+03 -5.40426E+03  4.61937E+03 -5.71372E+03 -5.11069E+02
 -6.55595E+03 -5.19688E+03 -1.75044E+03 -6.09734E+03  2.82696E+03 -5.17967E+03  3.72890E+03 -2.79716E+03
  2.80431E+03  2.82290E+02  2.83204E+02  1.21411E+03  7.78665E+02 -4.54928E+02  3.34110E+02 -2.10044E+03
  4.16548E+03 -1.47091E+03  6.12185E+03  9.20256E+02  6.15196E+03  3.17760E+03  5.50705E+03  8.01669E+03
 -1.29111E+03  9.56068E+03 -8.62840E+03  7.06683E+03 -1.13409E+04  1.40711E+03 -9.14294E+03 -3.63224E+03
 -4.36843E+03 -7.65431E+03 -6.07107E+02 -5.68457E+03  2.74686E+03 -2.30356E+03  2.06596E+03 -2.23302E+03
  1.48349E+03 -1.66590E+03  2.26261E+03 -2.23223E+03  3.85471E+03 -1.38425E+03  3.66415E+03  3.82443E+02
  5.00410E+03  1.40767E+03  1.32888E+03  3.82881E+03 -1.71915E+03  3.22615E+03 -4.85151E+03  2.81873E+03
 -6.22354E+03 -1.03739E+03 -2.26776E+03 -3.58855E+03  4.10983E+02 -5.51027E+03  3.42943E+03 -5.74902E+03
  5.86321E+03 -3.66666E+03  7.74520E+03  7.26204E+02  5.44475E+03  4.82060E+03  1.27446E+03  7.01917E+03
 -2.75058E+03  6.37213E+03 -3.98897E+03  2.49437E+03 -1.78856E+03 -1.13072E+03 -9.81103E+02 -4.60396E+02
 -1.84675E+02  3.19965E+02 -5.37531E+02  2.22320E+03 -2.40031E+03  1.07603E+03 -4.53285E+03 -8.33166E+02
 -2.29283E+03 -4.69133E+03  2.86433E+02 -5.65483E+03  3.17889E+03 -4.86063E+03  4.12928E+03 -1.47451E+03
  5.01859E+03  2.74109E+03  1.48246E+03  4.27207E+03 -1.28762E+03  5.05437E+03 -3.60738E+03  3.62287E+03
 -4.93732E+03  1.61648E+02 -4.08920E+03 -3.22734E+03 -6.96771E+02 -3.55639E+03  2.20173E+03 -2.66913E+03
  3.23560E+03 -1.35596E+03  2.13591E+03  2.99278E+02  4.57568E+02  2.04104E+03  1.43713E+03  8.60203E+02
  1.41739E+03  4.91170E+02  1.40415E+03  1.10365E+03  1.63641E+03  1.86709E+03  1.84352E+03  2.36331E+03
 -1.36414E+03  3.82560E+03 -3.47106E+03  4.99050E+03 -3.97055E+03  1.94947E+03 -4.64030E+03 -1.20126E+03
 -1.93657E+03 -4.34523E+03  4.81309E+02 -5.27477E+03  2.83890E+03 -3.28332E+03  3.50381E+03 -1.33339E+03
  3.18909E+03  2.43466E+03  3.75487E+02  2.79075E+03 -1.27050E+03  1.83013E+03 -1.51626E+03 -7.23780E+02
 -7.02717E+02 -1.91421E+03  1.38069E+03 -1.94577E+03  1.67182E+03 -1.14096E+03  1.81814E+03  3.71078E+02
  6.63972E+02 -2.12514E+02  8.74747E+02 -2.85863E+02 -8.88397E+02  1.03595E+03  1.77431E+03 -4.91812E+02
  3.58985E+02 -2.49780E+02  1.97395E+03  6.20924E+02  3.23786E+02  3.01474E+03 -3.28704E+02  3.17120E+03
 -2.02787E+03  1.81185E+03 -2.82391E+03  6.46694E+02 -2.36116E+03 -1.07929E+03 -1.19938E+02 -1.44957E+03
  6.34941E+02 -1.40086E+03  1.13209E+03 -2.14440E+02  8.16604E+02  1.38022E+03 -8.15727E+02  1.36124E+03
 -1.56369E+03  8.12361E+02 -1.58505E+03 -1.73227E+03 -7.12027E+02 -2.23339E+03  5.25927E+02 -2.06360E+03
  9.68846E+02 -1.34031E+03  1.16128E+03  2.92718E+02  1.88503E+03  5.51749E+02 -1.25632E+02  1.10501E+03
 -1.37343E+02  4.09826E+02 -8.94450E+02 -3.50405E+02  8.64403E+02 -1.69759E+03  1.34575E+03 -1.24914E+03
  1.86887E+03 -2.43358E+02  2.48338E+03  1.03827E+03  1.25181E+03  2.06103E+03 -4.99512E+02  2.06395E+03
 -2.11659E+03  3.17175E+01 -1.77029E+03  3.33026E+01 -9.66145E+02 -1.55303E+03  2.86602E+02 -9.36875E+02
  1.17451E+03 -6.35605E+02  1.36564E+03  8.67987E+02  1.38630E+02  1.37506E+03 -5.42215E+02  1.39717E+03
 -4.64031E+02  1.04313E+03 -4.12846E+02  2.19675E+02 -2.37085E+02  5.70206E+01 -6.98864E+02  1.18464E+03
 -6.58324E+02  8.86259E+02 -2.08115E+03  6.26055E+02 -1.95480E+03  3.36683E+02 -2.67882E+03 -1.43582E+03
 -1.69301E+03 -2.97242E+03  3.10701E+02 -3.42522E+03  1.88350E+03 -3.21255E+03  3.58093E+03 -1.51452E+03
  3.77132E+03  2.11652E+02  1.41614E+03  2.27334E+03 -3.21365E+02  2.01540E+03 -9.07307E+02  2.06404E+03
 -1.10920E+03  8.54489E+02 -3.98144E+02 -3.40823E+02 -5.61584E+02  1.37395E+02 -7.45129E+02 -3.06182E+02
 -1.48599E+03  6.79675E+01 -1.09414E+03 -1.01561E+01  1.60307E+02 -1.50447E+03 -7.41016E+02 -1.72262E+03
  1.51318E+03 -6.64730E+02  9.03271E+02  8.82541E+01  1.27472E+03  1.52296E+03 -6.33081E+02  1.26161E+03
 -1.21748E+03  2.85426E+03 -2.44917E+03  1.00972E+03 -2.74307E+03 -1.41824E+02 -1.95751E+03 -1.90684E+03
 -1.15879E+03 -1.89655E+03  4.81464E+02 -1.65290E+03  7.69843E+02 -1.12326E+03  7.09238E+02 -1.89726E+02
  8.89132E+02  2.32754E+02  8.42188E+01  5.25705E+02  2.19304E+02 -4.36406E+02 -4.74926E+02 -1.43561E+02
  9.13842E+02  2.25017E+02  1.09749E+03  1.04737E+03  1.26173E+02  7.59994E+02  5.44235E+02  3.18903E+02
 -7.51992E+02  1.38703E+03 -1.31095E+03 -3.05953E+02 -8.10792E+02 -6.09855E+02  1.68711E+01 -1.22117E+03
  8.07762E+02 -1.00836E+03  1.00977E+03 -1.25535E+02  1.09547E+03 -1.41037E+02  6.40891E+02  8.59123E+02
 -9.86218E+01  7.81599E+02 -2.43716E+02  1.03503E+03 -2.82780E+02  8.70067E+02 -6.01109E+02  1.78505E+02
 -6.46213E+02 -9.71617E+01 -4.09210E+02  4.92440E+02 -9.11986E+02  4.86478E+02 -9.92301E+02 -1.18293E+02
 -9.61540E+02 -1.62813E+02 -7.53945E+01 -8.57910E+02  3.51979E+02 -1.97459E+03  9.91776E+02 -2.59481E+02
  1.06334E+03 -2.26598E+01  6.15369E+01  8.55737E+02 -1.47874E+02  9.03802E+02 -5.84744E+02  8.35007E+02
