 $NMID ID='MM_0lb_SNR400_18hz_g45_34.RAW', FMTDAT='(8E13.5)'
 TRAMP=1., VOLUME=1. $END
  3.09637E+05  2.22347E+02  3.37093E+05  2.50368E+05  8.42590E+04  3.37243E+05 -1.32507E+05  2.50033E+05
 -1.89660E+05  8.29829E+04 -1.10510E+05 -3.27730E+04  1.53861E+03 -4.98596E+04  5.38066E+04 -5.73142E+00
  3.52335E+04  5.35288E+04 -1.71515E+04  7.45120E+04 -6.04036E+04  6.27318E+04 -8.30964E+04  3.18655E+04
 -7.95474E+04 -1.04079E+04 -5.59937E+04 -4.96774E+04 -1.52333E+04 -6.83249E+04  2.73762E+04 -4.47441E+04
  3.91323E+04  3.95263E+03  1.54242E+04  4.73319E+04 -3.38335E+04  4.65684E+04 -6.57754E+04 -1.37068E+03
 -5.22471E+04 -5.60888E+04 -6.74842E+03 -7.57967E+04  3.28237E+04 -5.37899E+04  4.66069E+04 -1.65144E+04
  4.12526E+04  1.09276E+04  3.07979E+04  2.43339E+04  1.60739E+04  2.81691E+04 -4.79465E+03  2.65437E+04
 -2.13955E+04  1.22154E+04 -1.89321E+04 -4.88380E+03  4.38013E+03 -7.39195E+03  2.15001E+04  1.11642E+04
  7.10544E+03  3.30202E+04 -3.05986E+04  3.41481E+04 -6.07592E+04  1.97906E+03 -5.54299E+04 -4.11244E+04
 -1.23097E+04 -6.07699E+04  3.75525E+04 -4.34667E+04  5.56680E+04 -2.40960E+03  3.18964E+04  3.09514E+04
 -6.58765E+03  3.25420E+04 -2.89532E+04  1.36080E+04 -2.76012E+04 -5.40824E+03 -1.41992E+04 -1.03499E+04
 -7.72723E+03 -1.13256E+04 -1.08506E+03 -1.67781E+04  7.01196E+03 -2.23340E+04  1.47524E+04 -1.34598E+04
  1.22379E+04  4.70896E+03 -5.73900E+03  1.28252E+04 -1.93869E+04 -2.68297E+03 -8.20184E+03 -3.09863E+04
  2.09134E+04 -4.08321E+04  4.46916E+04 -1.87577E+04  4.21784E+04  1.85296E+04  1.46133E+04  4.18614E+04
 -1.55932E+04  3.14299E+04 -2.36438E+04  1.31005E+03 -8.09628E+03 -2.64130E+04  2.02111E+04 -3.11837E+04
  3.82631E+04 -8.07644E+03  3.18194E+04  2.25263E+04  1.48862E+04  4.25881E+04 -7.61315E+03  4.55403E+04
 -2.84801E+04  2.95565E+04 -3.77309E+04  8.49676E+03 -3.85086E+04 -1.50197E+04 -2.09436E+04 -3.48032E+04
  7.25982E+03 -3.46549E+04  2.92554E+04 -1.23681E+04  2.74779E+04  1.07422E+04  2.94865E+03  1.78551E+04
 -1.34526E+04  7.16500E+03 -9.76546E+03 -8.18088E+03  5.77234E+03 -1.06032E+04  1.77918E+04  6.34206E+03
  1.21637E+04  2.12131E+04 -6.59777E+03  2.34532E+04 -2.17276E+04  9.32809E+03 -2.50601E+04 -6.28182E+03
 -1.69486E+04 -1.62022E+04 -5.70922E+03 -1.72186E+04  3.26300E+03 -1.50067E+04  1.25897E+04 -1.40679E+04
  2.11599E+04 -1.18614E+04  2.82948E+04  2.20695E+03  2.18375E+04  1.68647E+04  3.72364E+03  3.28025E+04
 -1.63121E+04  2.75579E+04 -2.55375E+04  9.25249E+03 -1.98702E+04 -1.04098E+04 -3.77737E+03 -1.41573E+04
  2.65113E+03 -4.19492E+03 -2.42790E+03  5.14476E+03 -1.31814E+04  5.55164E+03 -1.31351E+04 -4.46973E+03
 -8.85184E+03 -1.60202E+04  4.67933E+03 -1.92502E+04  1.28168E+04 -1.40379E+04  1.52056E+04 -1.38076E+03
  8.73434E+03  1.11119E+04 -1.09225E+03  1.56228E+04 -1.00097E+04  8.87110E+03 -1.52635E+04 -3.39573E+03
 -1.16860E+04 -1.43124E+04 -1.71216E+03 -1.93267E+04  8.85079E+03 -1.60672E+04  1.59639E+04 -7.29037E+03
  1.47660E+04  3.95411E+02  1.02432E+04  3.86787E+03  5.50778E+03  6.40463E+02  8.04473E+03 -1.61963E+03
  1.44970E+04  2.63478E+03  1.52263E+04  1.24997E+04  9.16812E+03  2.49794E+04 -2.68374E+03  2.64852E+04
 -1.58469E+04  2.08509E+04 -2.46308E+04  9.70266E+03 -2.51721E+04 -1.96294E+03 -2.20415E+04 -1.44912E+04
 -1.00931E+04 -2.03383E+04  7.29452E+03 -1.93860E+04  1.67882E+04 -1.14854E+04  1.58385E+04  3.38230E+03
  6.68797E+03  1.11920E+04 -7.40412E+03  1.08983E+04 -1.35659E+04  2.88217E+03 -1.08124E+04 -8.07070E+03
  1.21071E+02 -1.21830E+04  5.94243E+03 -9.57378E+03  7.67295E+03 -1.56462E+03  1.47316E+03  5.27051E+03
 -5.75333E+03  9.74266E+02 -4.15313E+03 -4.69535E+03  5.67509E+02 -1.01993E+04  8.14762E+03 -9.87946E+03
  1.26079E+04 -5.24699E+03  1.20409E+04  3.08655E+03  1.06724E+04  9.39311E+03  5.00280E+03  1.42117E+04
 -1.13637E+03  1.65239E+04 -1.00610E+04  9.84908E+03 -1.09198E+04  2.82201E+03 -8.70169E+03 -1.86963E+03
 -4.34336E+03 -2.83070E+03 -6.77047E+02  1.20164E+03 -2.21210E+03  1.82639E+03 -3.71174E+03  3.62044E+03
 -8.07956E+03 -8.84556E+02 -8.82851E+03 -7.33861E+03 -4.32123E+03 -1.16450E+04  3.42259E+03 -8.33722E+03
  7.63713E+03 -3.89802E+03  4.95880E+03  2.06686E+03 -5.16893E+01  3.01606E+03 -3.75027E+03 -1.06986E+03
 -3.47963E+03 -5.33212E+03 -1.25283E+03 -7.77239E+03  4.48862E+03 -7.94197E+03  9.84076E+03 -3.89573E+03
  1.15596E+04  8.87484E+02  8.53700E+03  6.55489E+03  1.86640E+03  8.79066E+03 -5.02971E+03  8.26706E+03
 -6.99895E+03  2.47987E+03 -4.14392E+03 -1.58991E+03  2.18575E+03 -1.63612E+03  4.59641E+03 -9.56829E+02
  4.46615E+03  3.57384E+03  5.75633E+02  6.54820E+03 -4.73749E+03  7.04779E+03 -7.62325E+03  1.69701E+03
 -5.33872E+03 -3.57077E+03  7.48474E+02 -6.80451E+03  4.12165E+03 -3.55509E+03  3.83428E+03  9.32608E+02
  5.67094E+02  3.62343E+03 -4.31094E+03  5.18668E+03 -4.71758E+03  2.48096E+03 -4.88797E+03 -1.60006E+03
 -3.36734E+03 -6.42149E+03  1.45993E+03 -7.36490E+03  6.25614E+03 -4.87921E+03  6.44503E+03  1.50956E+03
  4.21360E+03  5.39700E+03  3.15047E+01  7.36373E+03 -5.75921E+03  4.30659E+03 -5.09413E+03 -2.70075E+01
 -6.21263E+03 -5.27635E+03 -1.79954E+03 -5.48500E+03  1.68460E+03 -5.21527E+03  3.41544E+03 -2.59577E+03
  3.20758E+03  1.27076E+02 -3.54693E+02  1.60731E+03  6.58594E+02 -3.86882E+02  5.82758E+02 -2.27957E+03
  3.56785E+03 -7.04594E+02  5.40942E+03  5.88190E+02  5.96800E+03  3.15081E+03  5.57028E+03  6.91110E+03
 -1.66804E+03  8.77569E+03 -7.91234E+03  6.78113E+03 -1.02118E+04  9.39721E+02 -8.28503E+03 -2.45975E+03
 -4.38770E+03 -6.62593E+03 -6.18864E+02 -5.28928E+03  2.19975E+03 -2.06180E+03  1.80930E+03 -2.19559E+03
  1.47678E+03 -1.84649E+03  1.90642E+03 -2.09929E+03  3.30649E+03 -2.19140E+03  3.44449E+03  5.03935E+02
  4.42275E+03  1.30389E+03  1.16815E+03  3.69240E+03 -1.63454E+03  2.75084E+03 -4.47097E+03  2.47667E+03
 -5.12079E+03 -7.35137E+02 -2.03551E+03 -3.88146E+03  5.73118E+02 -4.83302E+03  3.60132E+03 -5.20061E+03
  5.19264E+03 -3.62920E+03  6.76039E+03  3.95287E+02  5.12924E+03  4.70940E+03  9.27511E+02  5.98485E+03
 -2.35170E+03  5.55044E+03 -3.21601E+03  1.93767E+03 -2.06998E+03 -8.43931E+02 -3.37501E+02 -1.10747E+03
 -5.67604E+02 -1.87869E+02 -1.18529E+02  1.69052E+03 -3.10023E+03  1.11985E+03 -4.76459E+03 -5.12709E+02
 -1.51661E+03 -4.15751E+03  8.78031E+02 -4.54907E+03  2.81965E+03 -4.71498E+03  4.13656E+03 -8.73445E+02
  4.27374E+03  2.90384E+03  1.75195E+03  3.52734E+03 -4.20124E+02  4.61382E+03 -3.03252E+03  2.46624E+03
 -4.55946E+03  3.80880E+02 -3.35292E+03 -2.49529E+03 -1.86659E+02 -3.06763E+03  2.01894E+03 -2.22108E+03
  3.26813E+03 -1.39482E+03  1.50100E+03  5.53274E+02  2.08815E+02  1.45704E+03  3.77079E+02  5.81918E+02
  1.93301E+03  1.40551E+02  1.53245E+03  1.01036E+03  1.36198E+03  2.23198E+03  1.45826E+03  1.72589E+03
 -1.16947E+03  3.74699E+03 -2.79138E+03  4.22790E+03 -3.33672E+03  9.65679E+02 -5.07122E+03 -6.55144E+02
 -1.85236E+03 -3.58455E+03  5.55398E+02 -4.38459E+03  1.96201E+03 -2.69164E+03  3.66241E+03 -1.21453E+03
  2.89954E+03  2.15509E+03  6.62320E+02  2.01550E+03 -7.26934E+02  1.10263E+03 -1.26594E+03 -2.27873E+02
 -9.19160E+02 -1.24952E+03  1.11655E+03 -1.67074E+03  1.25104E+03 -5.25511E+02  1.27308E+03  8.87113E+02
  1.46571E+03  4.24665E+02  6.54573E+02  1.67845E+02 -6.04928E+02  6.66192E+02  9.94864E+02 -6.27727E+02
  8.10631E+02  4.85100E+00  2.33586E+03  7.62987E+02  2.89870E+02  2.32170E+03 -9.74193E+02  3.65185E+03
 -2.32916E+03  1.24945E+03 -1.86913E+03 -4.85565E+02 -2.30205E+03 -8.43518E+02 -3.83471E+02 -8.51578E+02
  4.33303E+02 -1.49610E+03  1.04912E+03 -3.35303E+02  7.75193E+02  1.47380E+03 -1.46067E+03  1.35033E+03
 -1.99636E+03  8.56809E+02 -1.45573E+03 -7.42204E+02 -9.50191E+02 -2.31835E+03  2.94213E+02 -1.55573E+03
  4.66361E+02 -5.00250E+02  7.90244E+02 -1.58820E+02  1.17064E+03  4.17085E+02  5.58686E+02  9.24066E+02
 -6.43082E+02  6.82748E+01 -1.31490E+03 -2.92329E+02  4.28661E+02 -1.11762E+03  1.67218E+03 -8.15545E+02
  1.70768E+03  1.59645E+02  2.55495E+03  8.08867E+02  1.09896E+03  1.66687E+03 -5.65224E+02  1.78524E+03
 -1.84240E+03  9.24931E+02 -1.45694E+03 -3.62989E+02 -1.41125E+03 -1.44982E+03  1.43932E+02 -8.67691E+02
  1.23607E+03 -1.04558E+03  1.25012E+03  1.74322E+02  5.90053E+02  1.72530E+03  5.89147E+02  3.33571E+02
 -1.07298E+03  1.18796E+03 -6.51218E+02  2.66105E+02  2.05124E+01  4.43965E+02 -9.90568E+02  3.38131E+02
 -3.88373E+02  1.39839E+03 -2.15441E+03  7.01085E+02 -1.25779E+03  1.80788E+02 -2.61698E+03 -6.98010E+02
 -1.22193E+03 -2.60949E+03  3.52176E+02 -3.10640E+03  1.41943E+03 -2.41547E+03  3.27576E+03 -7.76949E+02
  2.14100E+03  3.74235E+02  1.70873E+03  2.06168E+03 -8.36657E+02  1.88403E+03 -8.86386E+02  9.71858E+02
 -1.19639E+03  7.61652E+02 -9.52296E+02 -3.02230E+02 -7.59647E+02  3.73832E+02 -5.72220E+02  3.18201E+02
 -5.06305E+02 -4.92487E+02 -1.24579E+03  4.43877E+01  1.13098E+02 -6.95527E+02  5.59343E+01 -1.08414E+03
  1.34118E+03 -1.06478E+03  9.03701E+02  2.42850E+02  1.10895E+03  7.44548E+02 -1.36517E+02  1.41799E+03
 -1.12717E+03  2.26080E+03 -2.38927E+03  9.16127E+02 -2.05141E+03  2.22292E+01 -1.17951E+03 -1.33560E+03
 -1.18009E+03 -1.36878E+03 -3.01449E+01 -1.34564E+03  9.52849E+02 -4.98935E+02  6.86964E+02  2.40622E+02
  9.23455E+02  3.33627E+02 -2.22393E+01  4.82888E+02  3.22105E+02  3.29701E+02 -4.93723E+02 -4.55323E+02
  4.59608E+02  3.84352E+02  1.14825E+02  7.96253E+02  3.91979E+02  5.80329E+02  6.44640E+02  2.93591E+02
 -2.61139E+02  3.08822E+02 -5.44430E+02  5.77520E+02 -1.03858E+03  1.33510E+02  6.95840E+02 -1.51084E+03
  2.84297E+02 -5.37138E+02  2.60139E+02 -7.50160E+02  7.51574E+02 -2.65569E+02  1.11481E+03  2.39195E+02
  1.02999E+03  8.74093E+02 -3.81247E+02  5.24212E+02 -2.34225E+02  4.62070E+02 -1.37789E+02  5.94112E+02
  1.15266E+02 -2.40912E+01 -1.23235E+02  4.37838E+02 -1.42803E+03  3.72457E+02 -6.47042E+02 -3.49854E+02
 -1.25952E+03  3.99438E+01 -3.19107E+02 -1.18034E+03  8.89084E+02 -1.47182E+03  9.55816E+02 -6.02771E+02
  8.15790E+02  2.80044E+02 -3.35308E+02  3.50828E+02 -1.84898E+02  9.35815E+02 -6.74075E+02  1.15498E+03
