 $NMID ID='MM_0lb_SNR400_9hz_g60_88.RAW', FMTDAT='(8E13.5)'
 TRAMP=1., VOLUME=1. $END
  3.10193E+05  5.03646E+02  3.38284E+05  2.50720E+05  8.45786E+04  3.39038E+05 -1.32626E+05  2.51763E+05
 -1.90855E+05  8.41459E+04 -1.12993E+05 -3.17509E+04 -2.99482E+02 -5.13085E+04  5.39060E+04 -1.55207E+02
  3.62537E+04  5.34610E+04 -1.65603E+04  7.60170E+04 -6.12681E+04  6.50545E+04 -8.63132E+04  3.25683E+04
 -8.30572E+04 -1.12807E+04 -5.84197E+04 -5.27569E+04 -1.44925E+04 -7.11668E+04  2.87702E+04 -4.66238E+04
  4.21310E+04  3.77577E+03  1.63053E+04  4.90548E+04 -3.52096E+04  4.82668E+04 -6.87625E+04  4.78692E+02
 -5.44398E+04 -5.84413E+04 -8.13040E+03 -7.91284E+04  3.49109E+04 -5.78833E+04  5.05874E+04 -1.85419E+04
  4.53815E+04  1.18458E+04  3.35148E+04  2.69982E+04  1.53282E+04  3.05609E+04 -5.85915E+03  2.85549E+04
 -2.22736E+04  1.21139E+04 -1.78736E+04 -6.18157E+03  7.34117E+03 -6.84199E+03  2.36983E+04  1.41354E+04
  6.98098E+03  3.82456E+04 -3.34258E+04  3.72776E+04 -6.71954E+04  2.39263E+03 -6.03811E+04 -4.55311E+04
 -1.22658E+04 -6.60817E+04  4.21914E+04 -4.75901E+04  6.20740E+04 -2.59513E+03  3.68987E+04  3.54205E+04
 -5.98684E+03  3.94138E+04 -3.31505E+04  1.86007E+04 -3.34746E+04 -3.73117E+03 -1.99718E+04 -1.20574E+04
 -9.94786E+03 -1.58436E+04 -3.98619E+02 -2.01914E+04  8.22208E+03 -2.35757E+04  1.55387E+04 -1.24189E+04
  1.00888E+04  6.90018E+03 -1.14134E+04  1.27612E+04 -2.36881E+04 -6.62631E+03 -8.64714E+03 -3.83086E+04
  2.53949E+04 -4.78884E+04  5.26996E+04 -2.13039E+04  4.95496E+04  2.12405E+04  1.73954E+04  4.71008E+04
 -1.69795E+04  3.62471E+04 -2.84704E+04  3.47563E+03 -1.23192E+04 -3.05645E+04  2.12413E+04 -3.79473E+04
  4.55155E+04 -1.18617E+04  4.16344E+04  2.63973E+04  2.20222E+04  5.23156E+04 -8.95013E+03  5.76639E+04
 -3.67230E+04  3.90534E+04 -4.93805E+04  1.08975E+04 -4.78887E+04 -1.83825E+04 -2.65065E+04 -4.39597E+04
  7.28145E+03 -4.29122E+04  3.42217E+04 -1.71546E+04  3.19223E+04  1.09544E+04  4.90033E+03  2.05942E+04
 -1.39547E+04  1.04048E+04 -1.15998E+04 -7.43570E+03  5.72224E+03 -1.12802E+04  1.94358E+04  5.36975E+03
  1.46678E+04  2.28573E+04 -4.09658E+03  2.81583E+04 -2.41584E+04  1.49839E+04 -3.21099E+04 -2.53316E+03
 -2.62007E+04 -1.95879E+04 -1.32464E+04 -2.58303E+04  4.48840E+03 -2.71354E+04  2.08708E+04 -2.37362E+04
  3.36522E+04 -1.48556E+04  3.92198E+04  5.67510E+03  2.65891E+04  2.46564E+04  4.76482E+03  4.20512E+04
 -1.99031E+04  3.50550E+04 -3.09309E+04  1.27415E+04 -2.27685E+04 -1.02044E+04 -5.12270E+03 -1.28651E+04
  1.00822E+03  1.58060E+02 -9.11897E+03  8.33369E+03 -2.10091E+04  5.57066E+03 -2.12906E+04 -1.00200E+04
 -1.27326E+04 -2.42531E+04  6.81398E+03 -2.97261E+04  2.02738E+04 -2.02664E+04  2.44639E+04 -2.19260E+03
  1.51442E+04  1.70754E+04 -1.74199E+03  2.35155E+04 -1.74404E+04  1.42335E+04 -2.46725E+04 -5.12007E+03
 -1.76233E+04 -2.13174E+04 -1.98557E+03 -2.91365E+04  1.23928E+04 -2.37194E+04  2.42090E+04 -1.20999E+04
  2.26784E+04  1.11370E+02  1.68293E+04  5.50550E+03  9.16554E+03  1.24845E+03  1.24632E+04 -2.46351E+03
  2.38229E+04  2.34260E+03  2.63391E+04  1.93154E+04  1.82037E+04  3.91818E+04 -1.93533E+03  4.63284E+04
 -2.65808E+04  3.86892E+04 -4.46188E+04  2.07370E+04 -4.76324E+04 -3.65770E+03 -3.84504E+04 -2.75113E+04
 -1.53203E+04 -3.91494E+04  1.35182E+04 -3.40491E+04  2.90970E+04 -1.58733E+04  2.48845E+04  8.67289E+03
  8.29123E+03  1.98167E+04 -1.22209E+04  1.62752E+04 -2.16949E+04  2.89900E+03 -1.59441E+04 -1.26547E+04
 -8.70668E+02 -2.08573E+04  1.08137E+04 -1.53332E+04  1.41853E+04 -6.61996E+02  4.28574E+03  8.77764E+03
 -8.60711E+03  4.24628E+03 -9.18259E+03 -7.34653E+03 -3.02035E+03 -2.00051E+04  1.24391E+04 -2.12512E+04
  2.42274E+04 -1.25330E+04  2.77633E+04  4.05897E+03  2.36288E+04  2.02272E+04  1.18686E+04  3.07382E+04
 -6.42053E+03  3.36856E+04 -2.17283E+04  2.19476E+04 -2.42204E+04  3.44265E+03 -1.55818E+04 -6.60944E+03
 -6.34907E+03 -7.66799E+03 -8.29199E+02 -1.44659E+02 -2.98639E+03  3.21700E+03 -7.99192E+03  5.49586E+03
 -1.51415E+04 -6.86646E+02 -1.52331E+04 -1.23045E+04 -5.43379E+03 -2.01197E+04  6.51959E+03 -1.74233E+04
  1.42147E+04 -6.89887E+03  9.53022E+03  4.97862E+03  5.07901E+02  6.81457E+03 -9.12923E+03 -9.17349E+01
 -8.09438E+03 -1.09319E+04 -2.29167E+03 -1.64331E+04  9.62880E+03 -1.83353E+04  2.07186E+04 -9.73497E+03
  2.54654E+04  2.87497E+03  1.78415E+04  1.55706E+04  3.99361E+03  2.00424E+04 -1.11285E+04  1.61646E+04
 -1.38282E+04  4.57643E+03 -6.45211E+03 -3.58404E+03  2.15301E+03 -5.17731E+03  7.84611E+03 -9.12345E+02
  8.26238E+03  7.55259E+03  1.00047E+03  1.35089E+04 -1.01577E+04  1.37691E+04 -1.63973E+04  3.11877E+03
 -1.14089E+04 -8.24522E+03 -1.89413E+02 -1.43797E+04  9.64050E+03 -7.04329E+03  1.04224E+04  3.38165E+03
  2.34501E+03  1.06558E+04 -8.42467E+03  1.20471E+04 -1.34762E+04  5.24652E+03 -1.48562E+04 -5.63709E+03
 -7.98867E+03 -1.68084E+04  4.49009E+03 -1.96396E+04  1.64606E+04 -1.11499E+04  1.82055E+04  3.15741E+03
  1.09956E+04  1.40881E+04 -1.86581E+03  1.77856E+04 -1.19704E+04  9.32413E+03 -1.34677E+04 -7.87334E+02
 -1.12308E+04 -1.09249E+04 -2.38152E+03 -1.23929E+04  7.50990E+03 -1.09095E+04  8.60744E+03 -4.50538E+03
  5.55608E+03  2.54507E+03 -1.35504E+03  1.78690E+03 -1.24127E+03 -3.31917E+03  2.71609E+03 -8.74344E+03
  1.27967E+04 -5.29545E+03  1.79905E+04  2.49129E+03  1.67340E+04  1.24021E+04  1.08137E+04  2.29125E+04
 -6.06592E+03  2.59746E+04 -2.13498E+04  1.98698E+04 -2.74503E+04  3.25145E+03 -2.17514E+04 -9.88948E+03
 -1.12321E+04 -1.77151E+04  1.47423E+02 -1.43191E+04  5.37778E+03 -9.35300E+03  5.18845E+03 -5.51122E+03
  4.58330E+03 -2.96508E+03  3.84153E+03 -4.17890E+03  6.35548E+03 -4.62963E+03  8.77138E+03 -1.75597E+03
  1.15130E+04  2.95633E+03  6.32604E+03  9.56497E+03 -2.03676E+03  1.20840E+04 -1.28414E+04  8.75554E+03
 -1.60240E+04 -9.17848E+02 -1.03556E+04 -1.06672E+04 -1.15410E+03 -1.65576E+04  9.57044E+03 -1.71615E+04
  1.80391E+04 -9.04904E+03  2.06128E+04  3.04679E+03  1.42173E+04  1.47141E+04  1.62537E+03  1.86094E+04
 -7.64980E+03  1.55375E+04 -1.17998E+04  5.09744E+03 -8.10506E+03 -1.31601E+03 -3.36815E+03 -2.34730E+03
 -2.00116E+03  1.14098E+02 -2.15814E+03  3.24909E+03 -5.78149E+03  2.36875E+03 -1.10592E+04 -1.23756E+03
 -8.07934E+03 -1.03872E+04  4.15953E+02 -1.62681E+04  9.66440E+03 -1.48878E+04  1.58126E+04 -3.98670E+03
  1.55147E+04  7.43709E+03  7.88889E+03  1.40115E+04 -3.09453E+03  1.58093E+04 -1.18755E+04  9.94735E+03
 -1.51518E+04  1.17530E+01 -1.14613E+04 -9.36215E+03 -9.01913E+02 -1.30340E+04  6.31127E+03 -1.00726E+04
  9.95215E+03 -2.77228E+03  7.59918E+03  2.75601E+03  2.63701E+03  5.10632E+03  1.17754E+03  2.01350E+03
  3.34485E+03  1.15655E+03  4.20414E+03  2.21099E+03  3.96801E+03  4.98367E+03  3.48303E+03  9.21589E+03
 -3.30321E+03  1.25226E+04 -1.17220E+04  1.24994E+04 -1.70603E+04  3.76889E+03 -1.70209E+04 -7.10575E+03
 -8.42290E+03 -1.52007E+04  2.05408E+03 -1.86064E+04  1.06573E+04 -1.15813E+04  1.41564E+04 -2.94125E+03
  9.86245E+03  5.51142E+03  2.04586E+03  9.07708E+03 -4.48203E+03  5.75561E+03 -7.55228E+03 -1.64685E+03
 -3.07352E+03 -6.64037E+03  4.11314E+03 -8.15607E+03  6.77243E+03 -3.06895E+03  6.54606E+03  9.09716E+02
  3.31388E+03  3.19386E+03  1.83166E+03  2.80201E+03 -8.43975E+02  2.57906E+03  2.11962E+03 -8.05206E+02
  2.52338E+03 -9.81588E+02  6.69380E+03  2.89498E+03  3.85090E+03  8.53638E+03 -1.78940E+03  1.16979E+04
 -8.50873E+03  8.13278E+03 -1.03740E+04  2.09515E+03 -8.87187E+03 -4.03432E+03 -3.66470E+03 -6.64074E+03
  9.95094E+02 -6.60274E+03  4.84664E+03 -2.28103E+03  3.49042E+03  2.64684E+03 -1.51361E+03  5.35041E+03
 -7.53696E+03  3.57418E+03 -7.78016E+03 -4.14007E+03 -3.94063E+03 -9.73325E+03  1.23112E+03 -8.49015E+03
  4.86136E+03 -5.04943E+03  6.59046E+03 -9.55570E+02  6.03625E+03  1.96851E+03  5.67518E+02  4.86967E+03
 -3.24514E+03  1.40124E+03 -4.64836E+03 -4.01141E+03  1.27781E+03 -7.13417E+03  8.05159E+03 -5.88684E+03
  1.10157E+04  7.13161E+02  1.03699E+04  6.61728E+03  3.38732E+03  1.07198E+04 -3.68980E+03  1.11758E+04
 -8.95932E+03  5.07828E+03 -8.83182E+03 -9.56134E+02 -5.23849E+03 -6.80165E+03  1.44759E+03 -6.68840E+03
  6.35665E+03 -3.30907E+03  5.74844E+03  2.65778E+03  1.85372E+03  6.39582E+03 -7.10738E+02  5.30161E+03
 -3.15842E+03  3.69826E+03 -3.06877E+03  2.19536E+03 -1.52429E+03  1.08237E+03 -1.78250E+03  2.27815E+03
 -2.67647E+03  4.27825E+03 -7.66698E+03  3.18020E+03 -1.14843E+04  1.44093E+02 -1.19620E+04 -7.55091E+03
 -6.79905E+03 -1.40626E+04  2.50030E+03 -1.64158E+04  1.02676E+04 -1.28389E+04  1.61023E+04 -5.94031E+03
  1.45323E+04  3.23045E+03  9.50543E+03  1.03509E+04  6.49196E+02  1.07502E+04 -3.54800E+03  8.35575E+03
 -5.85572E+03  3.04021E+03 -4.01580E+03 -1.74909E+03 -2.27387E+03 -1.35462E+03 -4.58189E+02  4.21552E+02
 -2.00437E+03  7.51312E+02 -2.12616E+03 -1.69944E+01 -1.95188E+03 -2.85904E+03 -1.09719E+03 -4.33490E+03
  4.63595E+03 -4.47197E+03  7.33896E+03 -2.79464E+02  8.62039E+03  6.30753E+03  2.48672E+03  1.22465E+04
 -5.34135E+03  1.37436E+04 -1.14269E+04  8.49249E+03 -1.37927E+04 -5.84954E+02 -1.04615E+04 -8.34056E+03
 -3.65576E+03 -1.17476E+04  2.95166E+03 -1.05538E+04  6.76906E+03 -5.88420E+03  7.29132E+03  4.77107E+02
  4.14208E+03  3.93273E+03 -5.37547E+02  3.43991E+03 -3.16866E+03  2.83211E+02  3.31485E+02 -3.12466E+03
  3.89074E+03 -9.48914E+02  4.10675E+03  1.41808E+03  3.05690E+03  4.85932E+03  1.96456E+02  6.71680E+03
 -4.97665E+03  6.11889E+03 -7.26728E+03  3.14350E+02 -6.95830E+03 -5.48814E+03 -1.18646E+03 -9.39778E+03
  5.29798E+03 -8.20275E+03  8.47980E+03 -2.86736E+03  8.80524E+03  2.14155E+03  5.15728E+03  7.27839E+03
  1.12202E+03  8.21433E+03 -3.30634E+03  6.58907E+03 -4.32712E+03  3.29426E+03 -4.01013E+03  5.45192E+02
 -1.54210E+03 -6.88728E+01 -1.98290E+03  9.48856E+02 -3.66975E+03  1.56513E+03 -6.00259E+03 -1.29925E+03
 -4.88728E+03 -3.64909E+03 -1.22213E+03 -7.25502E+03  4.21644E+03 -7.91909E+03  6.59296E+03 -4.01589E+03
  8.07581E+03  4.30502E+02  4.19364E+03  5.86454E+03 -4.42150E+01  8.24859E+03 -5.48002E+03  5.13136E+03
