 $NMID ID='MM_0lb_SNR400_7hz_g40_89.RAW', FMTDAT='(8E13.5)'
 TRAMP=1., VOLUME=1. $END
  3.09944E+05 -6.51930E+02  3.37863E+05  2.50678E+05  8.54568E+04  3.38560E+05 -1.33289E+05  2.53567E+05
 -1.90707E+05  8.34043E+04 -1.12965E+05 -3.23452E+04  7.33618E+02 -5.06756E+04  5.29765E+04 -3.68660E+02
  3.59628E+04  5.33200E+04 -1.69678E+04  7.65199E+04 -6.13839E+04  6.47611E+04 -8.59728E+04  3.27907E+04
 -8.26180E+04 -1.15565E+04 -5.83550E+04 -5.22074E+04 -1.52733E+04 -7.18235E+04  2.81291E+04 -4.75990E+04
  4.10534E+04  3.71133E+03  1.71833E+04  4.80878E+04 -3.46148E+04  4.72656E+04 -6.83629E+04 -3.25208E+02
 -5.62987E+04 -5.76247E+04 -7.41510E+03 -7.95548E+04  3.43566E+04 -5.80592E+04  4.95131E+04 -1.83878E+04
  4.64283E+04  1.15626E+04  3.27961E+04  2.68364E+04  1.58017E+04  3.08105E+04 -6.18222E+03  2.69987E+04
 -2.24327E+04  1.17834E+04 -1.83136E+04 -5.49340E+03  7.62323E+03 -7.21755E+03  2.32549E+04  1.41252E+04
  7.91459E+03  3.79087E+04 -3.37182E+04  3.76300E+04 -6.62994E+04  1.87620E+03 -5.94400E+04 -4.48789E+04
 -1.28920E+04 -6.62005E+04  4.20119E+04 -4.78601E+04  6.23911E+04 -2.84468E+03  3.70975E+04  3.55432E+04
 -4.90075E+03  4.04794E+04 -3.32330E+04  2.07294E+04 -3.37291E+04 -4.13295E+03 -2.03326E+04 -1.25037E+04
 -1.03750E+04 -1.49615E+04 -4.14175E+01 -2.05869E+04  8.49344E+03 -2.35818E+04  1.63584E+04 -1.27108E+04
  9.86275E+03  7.18798E+03 -1.11775E+04  1.27445E+04 -2.40111E+04 -7.17727E+03 -8.57456E+03 -3.82575E+04
  2.54174E+04 -4.74406E+04  5.37515E+04 -2.03862E+04  4.92686E+04  2.24760E+04  1.70328E+04  4.82251E+04
 -1.65612E+04  3.68377E+04 -2.84209E+04  2.89873E+03 -1.20056E+04 -2.98526E+04  2.17139E+04 -3.80266E+04
  4.45662E+04 -1.24311E+04  4.17517E+04  2.49034E+04  2.21151E+04  5.22652E+04 -8.01900E+03  5.74176E+04
 -3.54567E+04  3.91387E+04 -4.90863E+04  1.15255E+04 -4.92820E+04 -1.93845E+04 -2.70614E+04 -4.31736E+04
  8.47249E+03 -4.35654E+04  3.44520E+04 -1.78555E+04  3.20690E+04  1.10512E+04  6.09315E+03  2.25185E+04
 -1.40928E+04  9.92706E+03 -1.13071E+04 -7.34287E+03  6.20079E+03 -1.14766E+04  1.82741E+04  5.60609E+03
  1.53540E+04  2.32920E+04 -4.63076E+03  2.75724E+04 -2.34330E+04  1.45326E+04 -3.26777E+04 -3.26451E+03
 -2.62048E+04 -1.91265E+04 -1.28922E+04 -2.63627E+04  3.73885E+03 -2.74650E+04  2.13123E+04 -2.33647E+04
  3.31103E+04 -1.48908E+04  3.89049E+04  6.01535E+03  2.79767E+04  2.48375E+04  3.74650E+03  4.25781E+04
 -1.92379E+04  3.47858E+04 -3.22654E+04  1.12033E+04 -2.34988E+04 -1.10528E+04 -5.91156E+03 -1.28082E+04
  6.88358E+02 -6.56508E+02 -8.08249E+03  8.78894E+03 -2.07322E+04  4.85099E+03 -2.12876E+04 -1.00146E+04
 -1.11520E+04 -2.43333E+04  5.78729E+03 -2.85971E+04  1.96191E+04 -1.99638E+04  2.42148E+04 -2.58009E+03
  1.52656E+04  1.67590E+04 -1.77001E+03  2.51289E+04 -1.81021E+04  1.39929E+04 -2.48790E+04 -3.97721E+03
 -1.83925E+04 -2.23895E+04 -1.78675E+03 -3.01323E+04  1.35090E+04 -2.56304E+04  2.39791E+04 -1.26582E+04
  2.27963E+04 -4.82157E+02  1.73721E+04  5.28564E+03  8.50529E+03  2.34841E+03  1.26621E+04 -2.32137E+03
  2.38483E+04  3.45433E+03  2.69032E+04  1.87923E+04  1.92925E+04  3.92142E+04 -2.58349E+03  4.61962E+04
 -2.69544E+04  3.90358E+04 -4.46003E+04  2.06545E+04 -4.85122E+04 -3.95183E+03 -3.87843E+04 -2.74040E+04
 -1.46221E+04 -4.08188E+04  1.40748E+04 -3.46580E+04  2.96862E+04 -1.54652E+04  2.63888E+04  8.15999E+03
  8.62318E+03  1.93950E+04 -1.26127E+04  1.62408E+04 -2.13674E+04  1.59691E+03 -1.62919E+04 -1.25882E+04
 -7.03256E+02 -2.02580E+04  1.23953E+04 -1.54828E+04  1.38165E+04 -1.32772E+03  3.35021E+03  8.89407E+03
 -8.61058E+03  4.42765E+03 -1.04529E+04 -7.05610E+03 -1.81363E+03 -1.98653E+04  1.27910E+04 -2.23333E+04
  2.48182E+04 -1.26548E+04  2.89413E+04  3.61094E+03  2.50928E+04  1.94592E+04  1.13857E+04  3.20431E+04
 -6.42235E+03  3.42903E+04 -2.33633E+04  2.07503E+04 -2.51231E+04  4.78393E+03 -1.71868E+04 -6.26808E+03
 -6.85932E+03 -8.10737E+03 -4.98024E+02  9.71502E+02 -2.80372E+03  4.81903E+03 -8.58719E+03  5.75102E+03
 -1.54563E+04 -1.25574E+03 -1.65863E+04 -1.24066E+04 -6.62406E+03 -2.01995E+04  7.14409E+03 -1.69832E+04
  1.46770E+04 -6.83671E+03  9.96356E+03  3.88818E+03 -7.64119E+02  6.25718E+03 -8.28250E+03 -7.74311E+02
 -8.57726E+03 -1.16512E+04 -1.11759E+03 -1.75386E+04  1.01068E+04 -1.83153E+04  2.20191E+04 -1.01251E+04
  2.57572E+04  3.21809E+03  1.84973E+04  1.65334E+04  3.75155E+03  2.12233E+04 -1.05741E+04  1.79013E+04
 -1.41644E+04  4.97235E+03 -8.25907E+03 -3.67585E+03  1.90129E+03 -5.47651E+03  8.77198E+03 -1.03353E+03
  8.56519E+03  7.50160E+03  8.58058E+02  1.37606E+04 -9.53893E+03  1.33216E+04 -1.68690E+04  2.47743E+03
 -1.19008E+04 -8.96849E+03  4.07147E+02 -1.42522E+04  9.62618E+03 -7.31004E+03  9.85508E+03  4.07867E+03
  3.02732E+03  9.99228E+03 -9.20228E+03  1.32090E+04 -1.59965E+04  6.15939E+03 -1.56064E+04 -5.93376E+03
 -8.43849E+03 -1.74876E+04  4.34458E+03 -2.05779E+04  1.75287E+04 -1.19336E+04  1.85452E+04  3.16529E+03
  1.09915E+04  1.52853E+04 -2.57546E+03  1.86730E+04 -1.30698E+04  9.53957E+03 -1.45222E+04 -1.11392E+03
 -1.15628E+04 -1.19632E+04 -1.72398E+03 -1.30687E+04  6.96856E+03 -1.02327E+04  8.54684E+03 -3.26726E+03
  4.45925E+03  3.01310E+03 -7.74235E+02  1.54150E+03 -1.28291E+03 -4.11305E+03  4.01384E+03 -9.09661E+03
  1.32628E+04 -6.04699E+03  1.80583E+04  1.88709E+03  1.80303E+04  1.36217E+04  1.13293E+04  2.46536E+04
 -4.71879E+03  2.76248E+04 -2.25551E+04  1.97591E+04 -2.97302E+04  3.70733E+03 -2.33866E+04 -1.04397E+04
 -1.28184E+04 -1.96687E+04 -1.50913E+02 -1.69115E+04  5.59609E+03 -9.44033E+03  5.71283E+03 -6.02269E+03
  5.14518E+03 -3.18082E+03  4.77551E+03 -4.38079E+03  6.96190E+03 -3.43777E+03  8.70888E+03 -1.76032E+03
  1.18732E+04  3.46860E+03  5.81320E+03  1.01020E+04 -2.56446E+03  1.28680E+04 -1.31585E+04  1.07541E+04
 -1.65514E+04 -1.59615E+03 -1.19424E+04 -1.20350E+04 -1.52130E+03 -1.86449E+04  9.28132E+03 -1.78583E+04
  1.94176E+04 -1.01915E+04  2.19609E+04  2.98509E+03  1.70032E+04  1.65473E+04  2.89688E+03  2.14908E+04
 -8.63597E+03  1.71811E+04 -1.19034E+04  5.54922E+03 -8.37200E+03 -1.81556E+03 -3.40116E+03 -2.93236E+03
 -1.41922E+03  1.74959E+02 -2.34292E+03  2.99942E+03 -6.54970E+03  3.04324E+03 -1.17634E+04 -1.81348E+03
 -8.46830E+03 -1.12150E+04  9.90562E+01 -1.70125E+04  1.06656E+04 -1.61456E+04  1.84751E+04 -4.63940E+03
  1.76481E+04  8.43289E+03  8.98463E+03  1.57919E+04 -4.18813E+03  1.76419E+04 -1.23715E+04  1.12768E+04
 -1.75048E+04 -2.84806E+02 -1.28902E+04 -1.05862E+04 -6.81859E+02 -1.38822E+04  7.77481E+03 -1.14747E+04
  1.13105E+04 -3.70990E+03  7.39976E+03  3.38481E+03  2.73536E+03  4.73852E+03  1.88714E+03  2.30199E+03
  2.45900E+03  9.52456E+02  3.70197E+03  2.14527E+03  4.57625E+03  5.71826E+03  3.89677E+03  1.04411E+04
 -3.26196E+03  1.32732E+04 -1.27306E+04  1.40106E+04 -1.83829E+04  4.54087E+03 -1.87990E+04 -8.58388E+03
 -9.04401E+03 -1.79548E+04  2.90321E+03 -1.93715E+04  1.12999E+04 -1.26176E+04  1.46187E+04 -2.52156E+03
  1.15303E+04  6.45112E+03  2.07694E+03  1.07095E+04 -5.88780E+03  7.14031E+03 -7.90656E+03 -1.21275E+03
 -2.89528E+03 -8.94431E+03  4.15691E+03 -6.92192E+03  7.67498E+03 -4.59761E+03  7.43112E+03  1.50945E+03
  4.22461E+03  3.96569E+03  7.93055E+02  3.63507E+03 -6.46661E+02  2.82985E+03  1.54842E+03 -6.34321E+02
  2.90271E+03 -6.97136E+02  7.14525E+03  3.87339E+03  5.27328E+03  1.03675E+04 -1.07052E+03  1.31858E+04
 -9.52770E+03  9.54626E+03 -1.25626E+04  2.30049E+03 -1.10868E+04 -4.24584E+03 -4.53883E+03 -7.08009E+03
  2.35124E+02 -7.67628E+03  4.96536E+03 -3.51829E+03  3.66820E+03  4.07865E+03 -1.60172E+03  5.95996E+03
 -8.09510E+03  3.94910E+03 -9.06039E+03 -4.43458E+03 -5.15149E+03 -1.02598E+04  1.05158E+03 -1.01718E+04
  7.22723E+03 -6.44240E+03  8.45572E+03 -9.77663E+02  6.50358E+03  2.80877E+03  9.37915E+02  6.57458E+03
 -3.43486E+03  1.57109E+03 -3.80133E+03 -3.72288E+03  1.73269E+03 -8.13602E+03  1.01871E+04 -6.93754E+03
  1.33146E+04  8.31209E+02  1.18944E+04  8.85555E+03  3.45857E+03  1.29506E+04 -4.72226E+03  1.17762E+04
 -1.05509E+04  5.03425E+03 -1.09323E+04 -2.21957E+03 -5.48682E+03 -8.56483E+03  1.47484E+03 -7.60909E+03
  7.65112E+03 -4.44237E+03  7.04194E+03  2.71748E+03  2.26584E+03  7.95040E+03 -1.21471E+03  5.69617E+03
 -4.23252E+03  4.15492E+03 -3.12311E+03  1.02113E+03 -1.35657E+03  1.68544E+03 -3.22534E+03  2.11692E+03
 -3.24684E+03  5.22769E+03 -8.06720E+03  4.53166E+03 -1.32766E+04  2.97028E+02 -1.43180E+04 -7.55166E+03
 -7.29639E+03 -1.74159E+04  3.83270E+03 -1.92594E+04  1.25510E+04 -1.61017E+04  1.88004E+04 -5.72441E+03
  1.86383E+04  4.13080E+03  1.09892E+04  1.23093E+04  1.61389E+03  1.38825E+04 -5.25872E+03  9.97114E+03
 -7.72620E+03  3.49660E+03 -5.53693E+03 -1.72492E+03 -6.62762E+02 -1.37818E+03 -6.47510E+02  1.14423E+02
 -2.30112E+03  9.23732E+02 -1.66656E+03 -3.11933E+02 -7.00334E+02 -4.44390E+03 -6.64242E+02 -4.58107E+03
  5.85596E+03 -4.08366E+03  8.52515E+03 -6.23727E+01  1.05405E+04  6.83218E+03  2.37528E+03  1.36879E+04
 -6.59363E+03  1.55647E+04 -1.53594E+04  9.25297E+03 -1.59268E+04 -2.17814E+03 -1.24495E+04 -1.00766E+04
 -5.34742E+03 -1.47116E+04  4.77656E+03 -1.22018E+04  9.76557E+03 -7.44701E+03  8.33183E+03  4.52142E+02
  6.04664E+03  5.23208E+03 -1.14573E+03  5.14930E+03 -3.09174E+03 -2.06138E+02  4.37578E+02 -2.92889E+03
  4.35326E+03 -1.59848E+03  5.97588E+03  1.42004E+03  4.68107E+03  6.35003E+03  3.99976E+02  8.55631E+03
 -6.82449E+03  6.77886E+03 -9.70140E+03  1.19088E+03 -8.73613E+03 -6.20088E+03 -1.59505E+03 -1.15110E+04
  7.14727E+03 -1.02326E+04  1.09308E+04 -3.23117E+03  1.10609E+04  3.24456E+03  6.56493E+03  8.81229E+03
  1.60629E+03  9.70622E+03 -3.58800E+03  7.52249E+03 -6.52610E+03  5.36423E+03 -5.33138E+03  2.90006E+02
 -2.50795E+03 -2.95363E+02 -2.92577E+03  9.56093E+02 -5.16183E+03  1.94694E+03 -7.11292E+03 -1.05158E+03
 -8.02121E+03 -5.63749E+03 -2.21077E+03 -9.23353E+03  5.79303E+03 -1.00684E+04  9.03646E+03 -5.62472E+03
  1.04113E+04  1.08924E+03  6.28345E+03  7.21967E+03 -1.32661E+03  9.64932E+03 -6.91646E+03  6.55719E+03
