 $NMID ID='MM_0lb_SNR400_10hz_g40_72.RAW', FMTDAT='(8E13.5)'
 TRAMP=1., VOLUME=1. $END
  3.10350E+05  2.94890E+02  3.37736E+05  2.50524E+05  8.49693E+04  3.38951E+05 -1.32987E+05  2.51548E+05
 -1.90378E+05  8.34950E+04 -1.12124E+05 -3.34857E+04 -5.23614E+02 -5.12060E+04  5.40956E+04 -9.25455E+01
  3.59941E+04  5.30589E+04 -1.75025E+04  7.59582E+04 -6.15155E+04  6.38653E+04 -8.43870E+04  3.29438E+04
 -8.19069E+04 -1.16402E+04 -5.70900E+04 -5.20780E+04 -1.48037E+04 -7.05141E+04  2.73321E+04 -4.62065E+04
  4.09939E+04  4.04964E+03  1.61775E+04  4.84783E+04 -3.49370E+04  4.75504E+04 -6.76126E+04 -2.41402E+02
 -5.44981E+04 -5.76463E+04 -7.48875E+03 -7.88881E+04  3.38150E+04 -5.57166E+04  4.87258E+04 -1.80412E+04
  4.43292E+04  1.17387E+04  3.31405E+04  2.65038E+04  1.62737E+04  3.05747E+04 -5.27093E+03  2.81713E+04
 -2.27350E+04  1.25605E+04 -1.91199E+04 -6.11196E+03  6.66489E+03 -7.34512E+03  2.29003E+04  1.28399E+04
  7.16959E+03  3.63376E+04 -3.37849E+04  3.69341E+04 -6.53190E+04  2.35353E+03 -5.80233E+04 -4.43069E+04
 -1.21434E+04 -6.41755E+04  4.03664E+04 -4.64988E+04  5.97540E+04 -2.60462E+03  3.50945E+04  3.33582E+04
 -5.86681E+03  3.81312E+04 -3.18397E+04  1.76218E+04 -3.21412E+04 -3.79826E+03 -1.83876E+04 -1.25866E+04
 -8.47552E+03 -1.45510E+04  1.42286E+02 -1.88217E+04  7.52313E+03 -2.26755E+04  1.58831E+04 -1.26903E+04
  1.12476E+04  5.38859E+03 -9.51638E+03  1.29723E+04 -2.27987E+04 -5.21472E+03 -8.61636E+03 -3.50177E+04
  2.49515E+04 -4.60226E+04  5.01040E+04 -2.01884E+04  4.67734E+04  2.02141E+04  1.65627E+04  4.65997E+04
 -1.67165E+04  3.50948E+04 -2.58937E+04  1.94962E+03 -1.09736E+04 -2.87621E+04  2.13763E+04 -3.55749E+04
  4.41523E+04 -1.05132E+04  3.83860E+04  2.45209E+04  2.04733E+04  4.87878E+04 -7.89374E+03  5.33312E+04
 -3.41160E+04  3.62891E+04 -4.51734E+04  9.90975E+03 -4.60838E+04 -1.78748E+04 -2.54099E+04 -4.02128E+04
  7.87804E+03 -4.00446E+04  3.40317E+04 -1.52486E+04  3.07031E+04  1.01544E+04  5.10570E+03  1.97250E+04
 -1.37561E+04  8.99537E+03 -1.06471E+04 -7.96409E+03  6.03218E+03 -1.03335E+04  1.76668E+04  5.58583E+03
  1.44760E+04  2.21885E+04 -4.70365E+03  2.65089E+04 -2.30590E+04  1.32500E+04 -2.97754E+04 -3.33550E+03
 -2.35109E+04 -1.77007E+04 -1.02849E+04 -2.31250E+04  4.38878E+03 -2.29995E+04  1.78242E+04 -2.13234E+04
  2.94397E+04 -1.44049E+04  3.58373E+04  4.19136E+03  2.57920E+04  2.25673E+04  4.77152E+03  3.96433E+04
 -1.92930E+04  3.25167E+04 -2.86466E+04  1.08839E+04 -2.20007E+04 -1.04140E+04 -5.00319E+03 -1.34607E+04
  6.81025E+02 -1.91268E+03 -6.43911E+03  7.63358E+03 -1.84908E+04  5.35087E+03 -1.77961E+04 -9.22482E+03
 -1.14419E+04 -2.12884E+04  5.08749E+03 -2.60663E+04  1.74169E+04 -1.85155E+04  2.06649E+04 -1.80549E+03
  1.33143E+04  1.46361E+04 -1.16851E+03  2.14175E+04 -1.54142E+04  1.23351E+04 -2.14297E+04 -4.72132E+03
 -1.60148E+04 -1.94608E+04 -1.84573E+03 -2.64567E+04  1.11157E+04 -2.11136E+04  2.18065E+04 -1.17306E+04
  1.97804E+04 -2.65550E+02  1.43855E+04  4.53042E+03  8.09983E+03  1.18387E+03  1.18246E+04 -1.75116E+03
  2.05257E+04  2.44585E+03  2.31577E+04  1.74542E+04  1.56628E+04  3.49138E+04 -2.90773E+03  3.99147E+04
 -2.31092E+04  3.30532E+04 -3.82133E+04  1.69628E+04 -4.01613E+04 -2.66839E+03 -3.28399E+04 -2.35632E+04
 -1.32863E+04 -3.33004E+04  1.18880E+04 -2.94704E+04  2.48913E+04 -1.47785E+04  2.16988E+04  6.31204E+03
  7.64253E+03  1.66204E+04 -1.05922E+04  1.46372E+04 -1.82805E+04  2.63412E+03 -1.33288E+04 -1.19018E+04
 -6.61962E+02 -1.79124E+04  9.92785E+03 -1.33023E+04  1.21040E+04 -1.36542E+03  3.91422E+03  8.11200E+03
 -8.37085E+03  3.49106E+03 -8.14956E+03 -6.38039E+03 -1.65567E+03 -1.64325E+04  1.13291E+04 -1.78610E+04
  2.06093E+04 -9.70056E+03  2.37580E+04  3.13350E+03  2.02397E+04  1.66853E+04  8.65560E+03  2.53192E+04
 -5.44020E+03  2.77432E+04 -1.73724E+04  1.65350E+04 -1.98904E+04  4.07015E+03 -1.33623E+04 -5.40117E+03
 -5.99059E+03 -7.05414E+03 -4.62688E+02  7.86385E+02 -2.46479E+03  3.02631E+03 -5.92228E+03  5.33193E+03
 -1.32036E+04 -6.07649E+02 -1.29078E+04 -1.14093E+04 -4.95989E+03 -1.77062E+04  5.66951E+03 -1.43083E+04
  1.10548E+04 -5.90659E+03  8.98966E+03  3.42944E+03  4.18259E+02  5.86840E+03 -6.16507E+03  1.39317E+02
 -5.98228E+03 -9.05456E+03 -9.55923E+02 -1.26925E+04  7.79968E+03 -1.44655E+04  1.79362E+04 -8.20195E+03
  2.04489E+04  1.96260E+03  1.43077E+04  1.22308E+04  3.46442E+03  1.66576E+04 -8.27344E+03  1.44310E+04
 -1.17177E+04  2.96695E+03 -5.72504E+03 -3.05711E+03  2.40656E+03 -4.53114E+03  6.59332E+03 -9.56048E+02
  6.61539E+03  6.48419E+03  7.26759E+02  1.08413E+04 -7.57208E+03  9.81403E+03 -1.32806E+04  2.49120E+03
 -9.20482E+03 -6.97692E+03  6.84404E+02 -1.16331E+04  7.98866E+03 -5.98169E+03  8.55442E+03  2.76209E+03
  2.45578E+03  8.52172E+03 -7.26182E+03  1.07650E+04 -1.18006E+04  4.04670E+03 -1.08512E+04 -4.87562E+03
 -6.50568E+03 -1.36335E+04  3.31695E+03 -1.59347E+04  1.35365E+04 -9.46258E+03  1.44530E+04  1.60154E+03
  8.33427E+03  1.20495E+04 -1.23906E+03  1.38761E+04 -9.71567E+03  7.63263E+03 -1.11197E+04 -1.13515E+03
 -9.55866E+03 -9.08631E+03 -1.86623E+03 -1.05560E+04  5.25346E+03 -7.95927E+03  7.06464E+03 -3.77577E+03
  4.71910E+03  1.15531E+03 -1.43417E+03  1.40622E+03 -8.24869E+02 -2.60444E+03  1.77311E+03 -5.72443E+03
  1.06167E+04 -3.76444E+03  1.36035E+04  1.38989E+03  1.31511E+04  9.43053E+03  8.92930E+03  1.81052E+04
 -3.76328E+03  2.14695E+04 -1.64472E+04  1.53391E+04 -2.12686E+04  2.47093E+03 -1.80425E+04 -7.35042E+03
 -9.51604E+03 -1.41413E+04 -5.31866E+00 -1.24768E+04  4.73655E+03 -6.99213E+03  4.34019E+03 -3.99075E+03
  3.85707E+03 -3.12904E+03  3.36496E+03 -3.59384E+03  5.07083E+03 -3.24802E+03  6.47202E+03 -3.08008E+02
  9.02344E+03  2.47484E+03  4.72130E+03  7.52664E+03 -1.79746E+03  9.54080E+03 -1.00300E+04  6.50016E+03
 -1.22395E+04 -3.67081E+02 -7.77817E+03 -8.42600E+03 -1.13222E+03 -1.33681E+04  7.85810E+03 -1.40842E+04
  1.39038E+04 -7.78902E+03  1.53148E+04  2.77471E+03  1.11091E+04  1.17795E+04  2.08545E+03  1.52422E+04
 -6.99979E+03  1.15719E+04 -8.20857E+03  4.01020E+03 -6.43116E+03 -1.89133E+03 -2.88844E+03 -2.02601E+03
 -7.31695E+02 -2.87788E+02 -2.34843E+03  2.08894E+03 -5.13084E+03  1.69674E+03 -9.36386E+03 -1.50430E+03
 -6.12386E+03 -8.80331E+03 -2.08847E+02 -1.24832E+04  7.34053E+03 -1.16832E+04  1.18847E+04 -3.09366E+03
  1.18346E+04  5.46587E+03  5.72189E+03  1.07415E+04 -2.44422E+03  1.29558E+04 -8.78063E+03  7.95371E+03
 -1.18319E+04  7.44387E+02 -9.41833E+03 -7.76134E+03 -1.34498E+03 -1.07384E+04  4.77851E+03 -8.22809E+03
  7.45749E+03 -1.92386E+03  4.72376E+03  1.64900E+03  2.56889E+03  3.79261E+03  1.27486E+03  1.53615E+03
  2.82658E+03  1.74684E+03  3.30374E+03  1.51463E+03  3.85562E+03  3.94815E+03  3.52512E+03  6.91526E+03
 -3.54193E+03  1.06732E+04 -8.22051E+03  1.00697E+04 -1.23255E+04  2.75669E+03 -1.26735E+04 -4.05440E+03
 -6.16584E+03 -1.23547E+04  1.79234E+03 -1.37966E+04  8.00584E+03 -8.07015E+03  1.03555E+04 -2.25174E+03
  8.45253E+03  4.36022E+03  1.49811E+03  7.36124E+03 -3.54413E+03  4.02891E+03 -5.67690E+03 -9.05971E+02
 -1.65991E+03 -6.28751E+03  2.85857E+03 -4.82000E+03  5.34810E+03 -2.73736E+03  5.23033E+03  1.09435E+03
  2.87824E+03  2.44475E+03  1.50808E+03  1.29474E+03 -4.90809E+02  1.48398E+03  1.93240E+03 -2.67891E+02
  2.33362E+03 -6.18254E+02  5.34421E+03  2.45563E+03  2.22699E+03  7.53024E+03 -6.86512E+02  9.03630E+03
 -6.34342E+03  5.62026E+03 -8.41278E+03  1.30540E+03 -6.26569E+03 -3.02837E+03 -2.86990E+03 -5.13322E+03
  1.42344E+03 -4.82859E+03  2.95947E+03 -1.98736E+03  2.48561E+03  2.36627E+03 -7.63775E+02  4.33019E+03
 -5.49901E+03  2.83780E+03 -5.99418E+03 -3.77245E+03 -3.67158E+03 -7.04830E+03  9.83436E+02 -6.29831E+03
  3.47566E+03 -4.03005E+03  4.99828E+03  3.13651E+02  4.43904E+03  1.59237E+03  4.63023E+02  3.30429E+03
 -2.69575E+03  1.25388E+03 -3.75356E+03 -2.22088E+03  1.96279E+03 -5.06998E+03  6.13214E+03 -4.21025E+03
  7.77029E+03  7.26875E+02  8.17451E+03  5.64258E+03  2.44944E+03  7.90452E+03 -2.29063E+03  8.27124E+03
 -6.96448E+03  3.39211E+03 -6.30996E+03 -6.73171E+02 -3.76900E+03 -4.68178E+03  1.61269E+03 -5.01640E+03
  4.35642E+03 -2.52552E+03  4.35994E+03  2.76606E+03  1.97942E+03  5.36891E+03 -1.18046E+03  3.57027E+03
 -1.27497E+03  2.44456E+03 -2.18886E+03  4.52201E+02 -9.92189E+02  1.57494E+03 -1.87933E+03  1.96824E+03
 -2.41808E+03  2.60821E+03 -6.10103E+03  3.07178E+03 -8.21303E+03  5.04298E+02 -8.93568E+03 -5.68048E+03
 -4.87372E+03 -1.05130E+04  1.29148E+03 -1.28379E+04  7.52722E+03 -9.95011E+03  1.12614E+04 -3.35569E+03
  1.18170E+04  2.57054E+03  6.79266E+03  7.68756E+03 -2.33308E+02  8.41075E+03 -3.11814E+03  6.53525E+03
 -4.77925E+03  2.83651E+03 -3.05360E+03 -1.13677E+03 -1.17111E+03 -5.47704E+02 -3.69338E+02  1.19302E+02
 -1.72962E+03  5.53524E+02 -1.52291E+03  1.77055E+02 -6.72719E+02 -1.64223E+03 -1.61334E+02 -3.01837E+03
  3.54177E+03 -2.50445E+03  5.10702E+03  5.30159E+01  6.16514E+03  5.02244E+03  1.80064E+03  8.75361E+03
 -4.05512E+03  9.58854E+03 -8.19978E+03  5.57511E+03 -9.73279E+03 -9.19226E+02 -6.98574E+03 -5.42504E+03
 -3.37638E+03 -7.75287E+03  2.18529E+03 -7.79682E+03  5.00211E+03 -4.34242E+03  5.66148E+03  6.18707E+01
  2.92202E+03  2.38334E+03  4.01642E+02  2.44142E+03 -1.51150E+03  6.10921E+01  2.27162E+02 -1.59666E+03
  3.11130E+03 -4.70643E+02  3.46962E+03  1.44061E+03  1.53951E+03  2.96690E+03  2.33222E+02  4.29856E+03
 -3.28225E+03  3.63621E+03 -4.65374E+03  7.47005E+01 -4.86949E+03 -3.89168E+03 -5.42141E+02 -6.83611E+03
  3.99746E+03 -5.28483E+03  6.00159E+03 -1.68502E+03  6.32277E+03  1.20122E+03  3.38243E+03  5.24610E+03
  7.87018E+02  5.18194E+03 -2.36143E+03  4.11531E+03 -2.69068E+03  3.28389E+03 -2.62359E+03  6.53753E+02
 -1.36682E+03 -8.68351E+02 -1.97691E+03 -9.96318E+01 -2.70927E+03  1.39920E+03 -3.83728E+03 -5.34279E+02
 -3.83464E+03 -2.60280E+03 -9.18719E+02 -6.08855E+03  2.64352E+03 -6.62088E+03  5.14674E+03 -2.11954E+03
  5.35285E+03  3.28104E+02  2.78652E+03  3.87491E+03 -8.19721E+02  4.75366E+03 -3.37422E+03  3.16076E+03
