 $NMID ID='MM_0lb_SNR400_13hz_g55_8.RAW', FMTDAT='(8E13.5)'
 TRAMP=1., VOLUME=1. $END
  3.10216E+05  6.05833E+02  3.37656E+05  2.50655E+05  8.54343E+04  3.38459E+05 -1.32449E+05  2.51079E+05
 -1.90260E+05  8.34553E+04 -1.12623E+05 -3.22458E+04  4.65890E+02 -5.08530E+04  5.33339E+04 -6.76444E+02
  3.56679E+04  5.31949E+04 -1.64566E+04  7.60598E+04 -6.11091E+04  6.36390E+04 -8.45798E+04  3.22927E+04
 -8.16041E+04 -1.21520E+04 -5.77425E+04 -5.17347E+04 -1.47906E+04 -7.03209E+04  2.75892E+04 -4.64157E+04
  4.03910E+04  3.98934E+03  1.68253E+04  4.79535E+04 -3.42129E+04  4.77370E+04 -6.67850E+04  1.04707E+02
 -5.38814E+04 -5.74742E+04 -6.92682E+03 -7.85485E+04  3.37995E+04 -5.56095E+04  4.87977E+04 -1.82305E+04
  4.43501E+04  1.13331E+04  3.23963E+04  2.57187E+04  1.58770E+04  2.92811E+04 -5.29132E+03  2.80279E+04
 -2.25510E+04  1.19321E+04 -1.87655E+04 -5.01062E+03  6.33701E+03 -7.86313E+03  2.32635E+04  1.22306E+04
  7.62413E+03  3.57089E+04 -3.24990E+04  3.58880E+04 -6.41599E+04  2.03893E+03 -5.74553E+04 -4.37234E+04
 -1.25013E+04 -6.44005E+04  3.98578E+04 -4.60116E+04  5.88796E+04 -2.62744E+03  3.50552E+04  3.33664E+04
 -5.99258E+03  3.73278E+04 -3.06116E+04  1.70785E+04 -3.12913E+04 -4.76427E+03 -1.73055E+04 -1.15766E+04
 -9.08938E+03 -1.42522E+04 -3.25064E+02 -1.83465E+04  8.47547E+03 -2.30147E+04  1.50006E+04 -1.26942E+04
  1.05214E+04  5.50989E+03 -9.37484E+03  1.25042E+04 -2.14412E+04 -4.72293E+03 -8.02472E+03 -3.56913E+04
  2.33713E+04 -4.50136E+04  4.89777E+04 -2.01473E+04  4.63882E+04  1.97440E+04  1.57649E+04  4.52695E+04
 -1.72594E+04  3.44954E+04 -2.60803E+04  1.57898E+03 -1.06674E+04 -2.82426E+04  2.18689E+04 -3.44843E+04
  4.24435E+04 -1.01875E+04  3.75757E+04  2.44583E+04  1.91968E+04  4.83720E+04 -8.62276E+03  5.18837E+04
 -3.23338E+04  3.52609E+04 -4.35499E+04  1.06967E+04 -4.48247E+04 -1.69968E+04 -2.41188E+04 -3.97950E+04
  7.57048E+03 -3.93258E+04  3.21166E+04 -1.58497E+04  3.00148E+04  1.06572E+04  4.17288E+03  1.96279E+04
 -1.32743E+04  8.71396E+03 -1.10849E+04 -7.51982E+03  5.83531E+03 -1.08583E+04  1.88757E+04  6.80696E+03
  1.40925E+04  2.23261E+04 -5.38278E+03  2.58438E+04 -2.29081E+04  1.28826E+04 -3.00004E+04 -4.43873E+03
 -2.23428E+04 -1.74964E+04 -9.00227E+03 -2.20413E+04  4.51315E+03 -2.15637E+04  1.73599E+04 -1.94571E+04
  2.83457E+04 -1.37309E+04  3.44401E+04  3.30033E+03  2.56147E+04  2.15954E+04  4.57151E+03  3.77528E+04
 -1.82165E+04  3.12478E+04 -2.89596E+04  9.99518E+03 -2.13961E+04 -1.11265E+04 -5.54902E+03 -1.30557E+04
  9.68170E+02 -2.37306E+03 -5.88904E+03  6.95505E+03 -1.73894E+04  5.12804E+03 -1.70826E+04 -7.51946E+03
 -1.08660E+04 -2.03922E+04  6.29441E+03 -2.49447E+04  1.66806E+04 -1.73974E+04  1.99557E+04 -1.31941E+03
  1.25396E+04  1.47411E+04 -1.27304E+03  2.04360E+04 -1.42357E+04  1.22334E+04 -2.02869E+04 -4.39085E+03
 -1.55276E+04 -1.91288E+04 -1.75111E+03 -2.50164E+04  1.13908E+04 -2.04853E+04  1.96988E+04 -1.01341E+04
  1.94053E+04  5.02933E+02  1.31581E+04  4.40993E+03  7.53434E+03  9.34452E+02  1.07763E+04 -1.94378E+03
  1.82747E+04  2.44918E+03  2.08346E+04  1.67179E+04  1.43432E+04  3.26185E+04 -2.84009E+03  3.71787E+04
 -2.15022E+04  3.16059E+04 -3.48898E+04  1.49846E+04 -3.76102E+04 -2.83082E+03 -3.05523E+04 -2.08224E+04
 -1.24260E+04 -3.01661E+04  1.05628E+04 -2.67088E+04  2.29418E+04 -1.40393E+04  2.06124E+04  6.42483E+03
  7.67939E+03  1.60528E+04 -9.75703E+03  1.39122E+04 -1.75136E+04  2.16013E+03 -1.28693E+04 -1.10270E+04
 -2.43561E+02 -1.68050E+04  8.23974E+03 -1.24893E+04  1.13370E+04 -1.61537E+03  2.39319E+03  6.96703E+03
 -7.07536E+03  3.35302E+03 -7.40431E+03 -5.11628E+03 -8.94734E+02 -1.52439E+04  9.95819E+03 -1.57668E+04
  1.84216E+04 -8.41413E+03  1.96777E+04  2.32674E+03  1.69361E+04  1.52221E+04  8.16717E+03  2.27999E+04
 -4.20138E+03  2.50284E+04 -1.60611E+04  1.56976E+04 -1.89805E+04  3.07818E+03 -1.23153E+04 -4.16392E+03
 -5.91119E+03 -5.23878E+03 -6.95827E+02  1.24320E+02 -2.08872E+03  2.25979E+03 -5.96990E+03  4.19952E+03
 -1.17155E+04 -4.69284E+02 -1.14822E+04 -9.81501E+03 -5.08726E+03 -1.57507E+04  5.29174E+03 -1.26616E+04
  1.05751E+04 -5.77137E+03  7.49824E+03  2.89844E+03 -4.38167E+02  4.54414E+03 -6.69868E+03 -4.97407E+02
 -5.68803E+03 -7.74480E+03 -5.60032E+02 -1.17699E+04  6.63475E+03 -1.29770E+04  1.55013E+04 -6.64071E+03
  1.79743E+04  2.60654E+03  1.35945E+04  1.04918E+04  3.07868E+03  1.43271E+04 -7.42193E+03  1.20538E+04
 -9.94732E+03  4.16643E+03 -5.21480E+03 -2.59105E+03  1.91325E+03 -3.50815E+03  6.60741E+03 -1.57964E+03
  5.59113E+03  5.28659E+03  1.03777E+03  1.00284E+04 -7.03864E+03  9.18374E+03 -1.20911E+04  2.17294E+03
 -8.72513E+03 -6.50391E+03  1.67393E+02 -9.99518E+03  6.18667E+03 -5.43690E+03  7.42801E+03  2.09023E+03
  1.32304E+03  6.68239E+03 -6.33899E+03  8.86881E+03 -9.27886E+03  3.91105E+03 -1.00015E+04 -3.29467E+03
 -6.09147E+03 -1.09873E+04  2.74687E+03 -1.28277E+04  1.19708E+04 -7.43210E+03  1.21610E+04  2.32046E+03
  6.89376E+03  9.41420E+03 -1.25809E+03  1.20321E+04 -8.50563E+03  6.94275E+03 -9.18577E+03 -1.05136E+03
 -8.24311E+03 -8.01912E+03 -1.27397E+03 -9.98187E+03  4.67160E+03 -7.43442E+03  5.39694E+03 -3.65546E+03
  3.89951E+03  1.61165E+03 -7.34639E+02  1.56221E+03 -2.54360E+02 -1.75332E+03  1.84349E+03 -4.88132E+03
  8.07273E+03 -3.35959E+03  1.08094E+04  1.87375E+03  1.11471E+04  6.95438E+03  8.46992E+03  1.45013E+04
 -2.90328E+03  1.61055E+04 -1.41968E+04  1.28204E+04 -1.86344E+04  2.72006E+03 -1.41116E+04 -6.21484E+03
 -7.84677E+03 -1.12712E+04 -1.43202E+02 -1.00924E+04  3.86430E+03 -5.82691E+03  3.69497E+03 -3.06387E+03
  2.44736E+03 -2.62591E+03  3.07039E+03 -2.56779E+03  5.00090E+03 -2.29162E+03  6.02294E+03 -2.43753E+02
  7.30442E+03  1.09164E+03  4.11028E+03  6.42744E+03 -1.88423E+03  7.30214E+03 -8.06133E+03  6.45717E+03
 -1.01181E+04 -1.31300E+03 -5.81966E+03 -6.86625E+03 -4.48630E+02 -1.03269E+04  5.90462E+03 -1.06438E+04
  1.15579E+04 -6.44783E+03  1.30907E+04  1.09578E+03  9.25329E+03  9.34104E+03  1.13302E+03  1.23714E+04
 -5.06744E+03  1.04468E+04 -6.68342E+03  3.77671E+03 -4.60280E+03 -1.95159E+03 -1.82048E+03 -8.98135E+02
 -1.49350E+03 -2.69360E+02 -8.03826E+02  2.76567E+03 -4.29784E+03  1.12932E+03 -6.99849E+03 -1.08522E+03
 -4.31773E+03 -7.33171E+03  4.60146E+02 -9.94865E+03  6.31324E+03 -8.99659E+03  9.34569E+03 -2.94039E+03
  9.39656E+03  4.27659E+03  4.59255E+03  7.79038E+03 -1.87658E+03  1.00070E+04 -6.96103E+03  6.08895E+03
 -9.17026E+03  2.25400E+02 -6.75656E+03 -5.51672E+03 -6.51354E+02 -7.41290E+03  4.20935E+03 -6.00865E+03
  5.53671E+03 -2.74486E+03  4.59552E+03  1.17482E+03  1.41371E+03  2.66151E+03  6.94170E+02  1.23397E+03
  2.55646E+03  4.85402E+02  2.11428E+03  1.03303E+03  2.32944E+03  3.61556E+03  2.88830E+03  4.64262E+03
 -2.00062E+03  6.92722E+03 -6.24046E+03  8.09752E+03 -8.31841E+03  1.85816E+03 -9.57550E+03 -3.10863E+03
 -4.52066E+03 -9.29129E+03  1.39015E+03 -1.03763E+04  4.44749E+03 -6.74955E+03  6.92259E+03 -1.72541E+03
  5.17069E+03  3.99901E+03  1.36032E+03  5.28194E+03 -2.18732E+03  2.58047E+03 -3.71105E+03 -5.48795E+02
 -1.79613E+03 -4.39880E+03  1.89488E+03 -3.42258E+03  3.93424E+03 -1.73312E+03  3.10455E+03  9.66505E+02
  1.78059E+03  1.28515E+03  8.37147E+02  1.16376E+03 -4.15100E+02  2.10231E+03  1.32469E+03 -8.51117E+02
  1.21504E+03 -9.69933E+01  3.63063E+03  1.55389E+03  1.70830E+03  5.48945E+03 -1.27566E+03  6.24094E+03
 -3.77579E+03  3.65225E+03 -5.54636E+03  9.89885E+02 -5.21230E+03 -2.77966E+03 -1.53444E+03 -3.05385E+03
  1.02037E+03 -3.79682E+03  2.06201E+03 -1.39212E+03  2.39564E+03  2.11103E+03 -8.42457E+02  2.59572E+03
 -4.11273E+03  1.87070E+03 -3.71477E+03 -2.42161E+03 -2.37447E+03 -5.07009E+03  1.02872E+03 -4.70322E+03
  2.66707E+03 -3.28476E+03  2.61137E+03 -1.71555E+02  3.28287E+03  1.30836E+03  3.10759E+02  3.05295E+03
 -1.66240E+03  1.10789E+03 -1.65938E+03 -1.84131E+03  1.16380E+03 -3.36773E+03  4.27302E+03 -2.68448E+03
  4.77669E+03  9.95698E+02  5.58216E+03  3.68637E+03  1.78827E+03  5.60069E+03 -1.55659E+03  4.94923E+03
 -3.91635E+03  2.11157E+03 -5.05917E+03 -8.70887E+02 -2.70203E+03 -3.22411E+03  4.67396E+02 -3.36835E+03
  3.03216E+03 -1.43777E+03  2.75368E+03  1.74384E+03  9.64723E+02  2.68337E+03  1.70337E+02  2.69378E+03
 -1.10535E+03  2.52451E+03 -1.76002E+03  4.78371E+02 -5.28494E+02  8.90233E+01 -9.63263E+02  1.88977E+03
 -8.26308E+02  2.66419E+03 -3.83939E+03  1.72808E+03 -5.17639E+03  3.59126E+01 -5.71426E+03 -3.22355E+03
 -3.88598E+03 -6.77965E+03  9.83780E+02 -8.09519E+03  4.61062E+03 -5.82901E+03  7.86450E+03 -3.06921E+03
  7.04920E+03  1.29415E+03  3.54079E+03  4.59322E+03 -1.02823E+01  5.30310E+03 -1.66467E+03  3.03639E+03
 -2.72518E+03  2.40239E+03 -2.38346E+03 -7.97553E+02  5.89159E+00 -3.70510E+02 -1.09198E+03 -7.75387E+01
 -1.06353E+03 -4.42180E+02 -1.37457E+03 -4.77022E+02 -9.32013E+01 -1.33810E+03 -6.20899E+02 -1.52371E+03
  3.13984E+03 -1.22100E+03  2.74828E+03 -2.90646E+02  4.07186E+03  3.65862E+03  3.59809E+02  4.25963E+03
 -2.44491E+03  6.24348E+03 -5.52162E+03  3.81683E+03 -5.92011E+03 -7.83053E+02 -4.24528E+03 -3.09656E+03
 -2.40065E+03 -4.86853E+03  9.79027E+02 -4.48086E+03  2.35484E+03 -2.95893E+03  2.82772E+03  3.52687E+01
  1.77723E+03  1.30476E+03  6.02536E+01  1.54719E+03 -1.56362E+03 -2.66994E+02  2.13226E+02 -7.28457E+02
  1.75410E+03 -3.38399E+02  1.56675E+03  9.20937E+02  4.11197E+02  1.63727E+03  7.55565E+01  2.21865E+03
 -1.95980E+03  1.71525E+03 -3.06032E+03  5.35887E+02 -2.47475E+03 -2.04935E+03 -4.15054E+02 -3.44916E+03
  1.47928E+03 -2.86504E+03  3.70536E+03 -2.97592E+02  3.81878E+03  7.09107E+02  1.81814E+03  3.56335E+03
 -4.19601E+02  3.49328E+03 -1.52548E+03  2.27197E+03 -2.33219E+03  1.64115E+03 -1.37975E+03  5.30979E+02
 -5.55269E+02  7.96435E+02 -1.65900E+03  5.89929E+02 -1.77061E+03  8.31229E+02 -2.49893E+03 -8.18517E+01
 -2.59487E+03 -1.08037E+03 -7.68928E+02 -3.38873E+03  1.16029E+03 -3.62268E+03  2.52309E+03 -1.16571E+03
  2.98963E+03  5.17121E+01  1.57761E+03  2.29583E+03 -3.59745E+02  3.57594E+03 -2.17875E+03  2.32380E+03
