 $NMID ID='MM_0lb_SNR400_18hz_g40_32.RAW', FMTDAT='(8E13.5)'
 TRAMP=1., VOLUME=1. $END
  3.09837E+05  1.32063E+02  3.37495E+05  2.50479E+05  8.43753E+04  3.37005E+05 -1.32138E+05  2.49877E+05
 -1.89246E+05  8.26216E+04 -1.10809E+05 -3.30755E+04  1.58115E+03 -5.05806E+04  5.44086E+04 -2.63741E+02
  3.54341E+04  5.28651E+04 -1.65357E+04  7.45655E+04 -5.98497E+04  6.28170E+04 -8.29465E+04  3.18826E+04
 -7.94425E+04 -1.14717E+04 -5.57845E+04 -5.00605E+04 -1.47850E+04 -6.80633E+04  2.68367E+04 -4.47593E+04
  3.87761E+04  4.03821E+03  1.55850E+04  4.69479E+04 -3.43607E+04  4.62222E+04 -6.50106E+04 -4.61747E+02
 -5.20652E+04 -5.54493E+04 -6.20633E+03 -7.49494E+04  3.25225E+04 -5.24407E+04  4.62926E+04 -1.58660E+04
  4.14074E+04  1.09183E+04  3.01093E+04  2.38908E+04  1.58933E+04  2.78516E+04 -5.38257E+03  2.67925E+04
 -2.16850E+04  1.27867E+04 -1.95900E+04 -4.01628E+03  4.00857E+03 -7.34543E+03  2.12103E+04  1.09174E+04
  7.80424E+03  3.27345E+04 -3.00139E+04  3.42510E+04 -6.07534E+04  2.04432E+03 -5.48616E+04 -4.06151E+04
 -1.23678E+04 -6.04387E+04  3.82796E+04 -4.31017E+04  5.49138E+04 -1.57024E+03  3.15417E+04  3.04533E+04
 -6.75743E+03  3.25661E+04 -2.80365E+04  1.30111E+04 -2.69898E+04 -5.36137E+03 -1.37248E+04 -9.72425E+03
 -6.85948E+03 -1.13143E+04 -1.33668E+03 -1.63155E+04  6.25628E+03 -2.23928E+04  1.46602E+04 -1.41976E+04
  1.24976E+04  3.92892E+03 -6.33372E+03  1.30457E+04 -1.92578E+04 -2.02663E+03 -8.19773E+03 -3.00866E+04
  2.03867E+04 -4.03434E+04  4.50388E+04 -1.81509E+04  4.18460E+04  1.79943E+04  1.38532E+04  4.15180E+04
 -1.49880E+04  3.09912E+04 -2.30609E+04  4.08986E+02 -8.10197E+03 -2.57219E+04  2.00125E+04 -3.05610E+04
  3.76885E+04 -7.07573E+03  3.08287E+04  2.24120E+04  1.52965E+04  4.25017E+04 -7.94061E+03  4.45627E+04
 -2.82873E+04  2.99964E+04 -3.66333E+04  7.91376E+03 -3.79874E+04 -1.49713E+04 -2.12122E+04 -3.37843E+04
  7.04156E+03 -3.36586E+04  2.95268E+04 -1.19287E+04  2.65301E+04  1.06448E+04  2.94642E+03  1.76132E+04
 -1.26098E+04  7.49798E+03 -9.01138E+03 -7.53112E+03  5.39878E+03 -9.60884E+03  1.73350E+04  6.05084E+03
  1.27241E+04  2.14587E+04 -6.67004E+03  2.32431E+04 -2.08130E+04  8.34119E+03 -2.46410E+04 -6.13666E+03
 -1.63095E+04 -1.67180E+04 -5.85786E+03 -1.64773E+04  3.49567E+03 -1.45769E+04  1.20498E+04 -1.42156E+04
  2.06053E+04 -1.17660E+04  2.77358E+04  7.14491E+02  2.12534E+04  1.59688E+04  3.80497E+03  3.20239E+04
 -1.57255E+04  2.70681E+04 -2.53380E+04  9.56649E+03 -1.98637E+04 -1.06103E+04 -3.35922E+03 -1.39664E+04
  3.17413E+03 -4.51986E+03 -3.36575E+03  5.48290E+03 -1.29530E+04  5.26162E+03 -1.32867E+04 -4.40254E+03
 -8.34661E+03 -1.52732E+04  4.45869E+03 -1.88908E+04  1.26399E+04 -1.38827E+04  1.45451E+04 -1.20601E+03
  9.05438E+03  1.09278E+04 -9.83305E+02  1.51861E+04 -1.03089E+04  8.46241E+03 -1.52346E+04 -3.17519E+03
 -1.09329E+04 -1.42539E+04 -1.58740E+03 -1.91474E+04  8.93557E+03 -1.51225E+04  1.56836E+04 -7.71775E+03
  1.49214E+04  4.84171E+02  1.02677E+04  4.17073E+03  4.93717E+03  9.06586E+02  7.44877E+03 -1.59848E+03
  1.41419E+04  2.96017E+03  1.47976E+04  1.27425E+04  9.21857E+03  2.46241E+04 -2.67071E+03  2.62002E+04
 -1.56002E+04  1.98147E+04 -2.45248E+04  9.64794E+03 -2.45591E+04 -1.89628E+03 -2.11783E+04 -1.37735E+04
 -1.00831E+04 -2.01750E+04  7.14959E+03 -1.88990E+04  1.63036E+04 -1.07623E+04  1.50297E+04  4.05438E+03
  6.62111E+03  1.08172E+04 -7.46041E+03  1.03945E+04 -1.35723E+04  2.90841E+03 -1.04225E+04 -7.68710E+03
  3.16318E+01 -1.19700E+04  6.06784E+03 -9.27422E+03  7.49742E+03 -1.52427E+03  1.60204E+03  4.91136E+03
 -5.65682E+03  9.85506E+02 -3.54790E+03 -4.75542E+03  5.75461E+02 -1.00830E+04  7.50097E+03 -1.02518E+04
  1.20677E+04 -4.63681E+03  1.17140E+04  2.73408E+03  1.01438E+04  9.29403E+03  5.53977E+03  1.38625E+04
 -1.59409E+03  1.57445E+04 -9.63116E+03  1.00440E+04 -1.07787E+04  3.20403E+03 -8.18106E+03 -1.85738E+03
 -4.48453E+03 -3.46131E+03 -1.17319E+03  1.74407E+03 -2.63562E+03  2.04641E+03 -3.61984E+03  3.21067E+03
 -8.37740E+03 -5.11870E+02 -8.97252E+03 -6.82992E+03 -4.07031E+03 -1.12162E+04  4.23069E+03 -8.14977E+03
  6.79363E+03 -3.67916E+03  5.17966E+03  1.62274E+03  5.03243E+02  2.94517E+03 -3.39651E+03  1.43952E+02
 -2.93203E+03 -5.31596E+03 -1.18283E+03 -7.19880E+03  4.10541E+03 -8.07807E+03  9.58363E+03 -3.73399E+03
  1.20265E+04  6.16103E+02  8.96488E+03  5.81646E+03  1.54248E+03  9.03302E+03 -5.59231E+03  8.95396E+03
 -6.75754E+03  2.95079E+03 -3.69316E+03 -9.08236E+02  1.06603E+03 -1.91428E+03  5.10136E+03 -9.12276E+02
  3.87168E+03  3.47908E+03  1.36797E+03  6.42188E+03 -4.27172E+03  6.00311E+03 -7.66565E+03  2.37239E+03
 -5.00290E+03 -3.63324E+03  2.25955E+02 -6.74606E+03  3.89191E+03 -3.54166E+03  3.36032E+03  5.33525E+02
  5.50647E+02  3.65175E+03 -4.20774E+03  5.28662E+03 -5.04387E+03  2.09210E+03 -4.23459E+03 -1.30191E+03
 -2.56167E+03 -6.19655E+03  8.79671E+02 -7.23879E+03  5.80988E+03 -4.57422E+03  6.45415E+03  8.56059E+02
  4.45548E+03  5.82801E+03  9.83650E+02  7.47058E+03 -5.51744E+03  4.63517E+03 -5.32409E+03 -8.70133E+02
 -5.82367E+03 -5.25018E+03 -1.58777E+03 -4.87334E+03  2.75490E+03 -4.05558E+03  3.24860E+03 -3.19418E+03
  2.64286E+03  6.16422E+02  1.96140E+02  1.54183E+03  5.58330E+02 -2.75735E+02  1.23530E+02 -1.93242E+03
  3.45138E+03 -1.49717E+03  5.37471E+03  1.21752E+03  5.34727E+03  3.11443E+03  5.28455E+03  7.12521E+03
 -1.13710E+03  8.50723E+03 -8.01344E+03  6.70327E+03 -1.03244E+04  1.07035E+03 -7.67512E+03 -2.68351E+03
 -4.68779E+03 -6.30934E+03 -2.03405E+02 -5.38710E+03  2.40612E+03 -1.85354E+03  1.80311E+03 -2.09008E+03
  1.24491E+03 -1.86592E+03  2.40261E+03 -2.66209E+03  3.49907E+03 -1.71112E+03  3.91421E+03  3.02614E+02
  5.00500E+03  1.03838E+03  9.98462E+02  3.72809E+03 -1.52255E+03  3.21050E+03 -4.75927E+03  2.32701E+03
 -5.01347E+03 -9.74066E+02 -1.80061E+03 -3.75656E+03 -5.60905E+01 -5.42911E+03  3.13541E+03 -5.24668E+03
  5.41996E+03 -3.26233E+03  7.04722E+03  4.96399E+02  4.67607E+03  4.44521E+03  1.34119E+03  6.41497E+03
 -1.78475E+03  5.68715E+03 -3.51541E+03  2.09585E+03 -2.20613E+03 -7.58717E+02 -2.30659E+02 -6.77720E+02
 -1.17657E+03  1.10211E+02 -1.42782E+03  1.20157E+03 -2.63176E+03  1.48114E+03 -3.96426E+03 -1.40161E+02
 -1.07541E+03 -4.29693E+03  6.34206E+02 -4.49360E+03  3.06647E+03 -4.58151E+03  3.51168E+03 -1.09282E+03
  4.09375E+03  2.41658E+03  2.36119E+03  3.58533E+03 -8.00638E+02  4.54281E+03 -1.97606E+03  2.57684E+03
 -3.73996E+03  6.08617E+02 -3.29704E+03 -2.86285E+03 -1.43202E+02 -3.52525E+03  1.35831E+03 -2.75465E+03
  2.49916E+03 -1.41440E+03  1.54557E+03  1.79056E+02  3.90234E+02  1.73341E+03  3.40340E+02  7.12063E+02
  1.74462E+03  4.49521E+02  1.12827E+03  1.12172E+03  1.03674E+03  1.86932E+03  1.43189E+03  2.02466E+03
 -1.64528E+03  3.12697E+03 -2.77454E+03  4.08709E+03 -2.88122E+03  1.28564E+03 -4.42560E+03 -6.84345E+02
 -2.42339E+03 -4.10116E+03  7.06992E+02 -4.83321E+03  2.54064E+03 -2.94215E+03  3.36822E+03 -8.67230E+02
  2.66509E+03  2.16783E+03  2.40454E+02  1.97318E+03 -1.07122E+03  1.00667E+03 -8.11938E+02 -1.06308E+01
 -7.82246E+02 -1.45593E+03  1.32084E+03 -8.81975E+02  1.61164E+03 -1.02475E+03  9.92939E+02  8.11062E+02
  7.51957E+02 -3.32305E+01  1.39874E+03 -2.52333E+01 -3.95487E+02  7.74104E+02  1.60940E+03 -1.41334E+02
  5.08431E+02 -2.67367E+02  1.93787E+03  6.54592E+02  2.95393E+02  2.38846E+03  1.45229E+02  2.86744E+03
 -1.82662E+03  1.39469E+03 -1.80892E+03  7.61651E+02 -2.23277E+03 -5.38986E+02 -2.88485E+02 -1.45930E+03
 -1.53964E+02 -1.36884E+03  7.35245E+02 -1.00842E+03  3.47352E+02  1.21779E+03 -7.52723E+02  1.50429E+03
 -1.66613E+03  5.08855E+02 -1.16259E+03 -1.43748E+03 -8.89225E+02 -2.08932E+03  2.66594E+02 -1.66781E+03
  8.18249E+02 -2.58586E+02  1.09275E+03  4.77106E+01  1.31601E+03 -2.19282E+01  5.48358E+02  7.32043E+02
 -7.31108E+02  2.16216E+02 -5.88088E+02  8.13943E+01  7.36948E+02 -6.67357E+02  1.93799E+03 -6.89560E+02
  1.69359E+03  1.15561E+02  3.14633E+03  1.07930E+03  9.94342E+02  2.33889E+03 -1.79538E+02  1.96451E+03
 -1.70858E+03 -3.34600E+01 -1.26830E+03 -2.49039E+02 -1.16450E+03 -1.51055E+03  3.49482E+02 -2.67274E+02
  1.73075E+03 -1.24160E+03  3.43263E+02  5.94431E+02  1.09708E+02  1.60443E+03 -1.00310E+02  8.64089E+02
 -6.78737E+02  1.30218E+03 -1.03471E+02  1.44568E+01 -6.46499E+01 -8.15231E+01 -7.75251E+02  6.29550E+02
 -1.19328E+03  1.51468E+03 -1.79204E+03  6.74796E+02 -1.12451E+03 -3.60874E+02 -2.93338E+03 -1.51242E+03
 -6.93584E+02 -2.35860E+03  4.93889E+02 -3.00020E+03  1.42975E+03 -2.62452E+03  3.26602E+03 -9.09260E+02
  2.63556E+03  9.10875E+01  1.30265E+03  1.58187E+03 -2.06887E+02  1.64677E+03 -8.95173E+02  1.33621E+03
 -1.39316E+03  7.53194E+02 -1.06116E+03 -2.63497E+02 -3.93806E+02  5.10919E+02 -8.09184E+02  4.05879E+02
 -8.56926E+02 -1.90738E+01 -1.31713E+03  4.00904E+01  2.37405E+02 -8.72901E+01 -2.62769E+02 -1.17685E+03
  1.19627E+03 -4.27979E+02  1.41616E+02  8.00487E+01  8.89882E+02  7.17216E+02 -2.80184E+02  1.79224E+03
 -1.03483E+03  2.20582E+03 -1.79375E+03  9.04259E+02 -1.78889E+03 -2.40849E+02 -9.47674E+02 -9.57184E+02
 -1.64967E+03 -1.88037E+03 -2.13481E+02 -8.51097E+02  7.06019E+02 -7.44023E+02  6.49395E+02 -1.80723E+02
  4.05553E+02  7.06265E+02  5.87675E+02  3.20291E+02  1.45784E+02  1.43530E+02 -3.03365E+02 -2.01504E+01
  5.46774E+02 -1.94923E+02  5.07387E+02  2.98812E+02  3.78514E+02  5.78730E+02  4.03395E+02  7.34206E+02
 -3.55964E+02  1.12677E+03 -3.51992E+02  1.01746E+01 -1.51259E+03 -3.38236E+02 -1.49459E+02 -1.26593E+03
  7.96089E+02 -2.35940E+02  8.17929E+02 -5.34521E+01  5.41875E+02 -9.21272E+02  3.80473E+02  1.04781E+03
  1.94547E+02  5.10332E+02 -4.97141E+02  4.23906E+02 -1.02639E+03  1.25636E+03 -5.63295E+02  2.89880E+02
 -3.94104E+02 -3.05869E+02 -4.97351E+02  3.61633E+02 -9.77786E+02  3.12960E+02 -7.29107E+02 -3.29838E+02
 -8.19200E+02  1.18807E+02 -6.15576E+02 -3.92268E+02  8.36601E+02 -1.09540E+03  8.82075E+02  9.45742E+00
  5.62442E+02  2.94068E+02 -2.71488E+02  5.22138E+02 -4.35670E+02  1.08584E+03 -7.94144E+02  2.67065E+02
