 $NMID ID='MM_0lb_SNR400_15hz_g45_53.RAW', FMTDAT='(8E13.5)'
 TRAMP=1., VOLUME=1. $END
  3.10089E+05 -2.86177E+01  3.37407E+05  2.50188E+05  8.44136E+04  3.37607E+05 -1.31849E+05  2.50561E+05
 -1.90003E+05  8.24692E+04 -1.11442E+05 -3.24541E+04  9.31266E+02 -5.02938E+04  5.39181E+04 -3.29070E+02
  3.55665E+04  5.27240E+04 -1.71749E+04  7.55318E+04 -6.06216E+04  6.36679E+04 -8.41697E+04  3.18716E+04
 -8.08225E+04 -1.11597E+04 -5.63334E+04 -5.09000E+04 -1.49981E+04 -6.88318E+04  2.66787E+04 -4.52890E+04
  3.99606E+04  4.08795E+03  1.59760E+04  4.79511E+04 -3.42392E+04  4.61874E+04 -6.60526E+04  9.12068E+01
 -5.27456E+04 -5.63738E+04 -5.81650E+03 -7.65708E+04  3.35391E+04 -5.49542E+04  4.73908E+04 -1.65797E+04
  4.35852E+04  1.17964E+04  3.11857E+04  2.52963E+04  1.59021E+04  2.82983E+04 -5.25326E+03  2.75197E+04
 -2.18516E+04  1.24386E+04 -1.88694E+04 -4.87810E+03  4.90725E+03 -7.33101E+03  2.14442E+04  1.20642E+04
  7.44933E+03  3.42461E+04 -3.17886E+04  3.47292E+04 -6.28641E+04  2.01274E+03 -5.58043E+04 -4.22958E+04
 -1.21710E+04 -6.25690E+04  3.91107E+04 -4.52784E+04  5.69755E+04 -1.98177E+03  3.31111E+04  3.24562E+04
 -6.16718E+03  3.52464E+04 -3.00278E+04  1.46724E+04 -2.97902E+04 -4.26506E+03 -1.55343E+04 -1.11401E+04
 -8.34228E+03 -1.24523E+04 -1.03310E+03 -1.81911E+04  7.55849E+03 -2.29705E+04  1.57271E+04 -1.38801E+04
  1.21312E+04  4.94191E+03 -6.99336E+03  1.33774E+04 -2.01053E+04 -4.17969E+03 -7.64077E+03 -3.31511E+04
  2.19674E+04 -4.29788E+04  4.73137E+04 -1.97652E+04  4.40295E+04  1.86834E+04  1.48698E+04  4.28766E+04
 -1.57767E+04  3.21195E+04 -2.45330E+04  2.03095E+03 -9.76960E+03 -2.75843E+04  2.05199E+04 -3.29063E+04
  3.99565E+04 -8.40730E+03  3.43380E+04  2.33177E+04  1.71983E+04  4.55526E+04 -7.55565E+03  4.89682E+04
 -3.10146E+04  3.25343E+04 -4.06866E+04  9.12470E+03 -4.10707E+04 -1.56212E+04 -2.26261E+04 -3.63661E+04
  6.76733E+03 -3.71367E+04  3.09559E+04 -1.43013E+04  2.83420E+04  1.04724E+04  3.25558E+03  1.92106E+04
 -1.36084E+04  8.07534E+03 -1.06490E+04 -6.44592E+03  5.82062E+03 -1.05281E+04  1.72121E+04  6.85127E+03
  1.29675E+04  2.24852E+04 -6.30176E+03  2.46631E+04 -2.26037E+04  1.07782E+04 -2.65436E+04 -5.45566E+03
 -1.98510E+04 -1.70586E+04 -7.11377E+03 -1.94174E+04  3.31462E+03 -1.74624E+04  1.45884E+04 -1.74830E+04
  2.45225E+04 -1.22480E+04  3.10853E+04  2.18350E+03  2.32688E+04  1.90042E+04  4.31408E+03  3.50403E+04
 -1.71469E+04  2.96615E+04 -2.71302E+04  9.65683E+03 -2.11471E+04 -9.99541E+03 -3.82001E+03 -1.32909E+04
  2.10448E+03 -2.98474E+03 -3.98176E+03  6.31188E+03 -1.54381E+04  5.34101E+03 -1.56803E+04 -6.25766E+03
 -9.58432E+03 -1.78099E+04  5.08451E+03 -2.20156E+04  1.44894E+04 -1.58066E+04  1.75528E+04 -1.43250E+03
  1.04617E+04  1.28288E+04 -6.76895E+02  1.81171E+04 -1.17431E+04  1.06557E+04 -1.75130E+04 -4.14372E+03
 -1.34218E+04 -1.59677E+04 -1.70803E+03 -2.19736E+04  1.00938E+04 -1.75455E+04  1.88838E+04 -8.34222E+03
  1.66825E+04  1.42356E+01  1.19140E+04  4.36000E+03  6.23664E+03  3.94231E+02  8.79163E+03 -2.20952E+03
  1.61793E+04  2.93523E+03  1.79578E+04  1.50134E+04  1.16370E+04  2.83970E+04 -2.90345E+03  3.21020E+04
 -1.80781E+04  2.57773E+04 -2.92349E+04  1.24931E+04 -3.10493E+04 -2.55111E+03 -2.51414E+04 -1.71772E+04
 -1.11654E+04 -2.50068E+04  8.91413E+03 -2.27204E+04  1.98208E+04 -1.21544E+04  1.77337E+04  5.08721E+03
  7.56635E+03  1.27343E+04 -8.75467E+03  1.15708E+04 -1.49948E+04  2.23015E+03 -1.20155E+04 -9.55565E+03
 -2.91543E+02 -1.47235E+04  7.81732E+03 -1.09140E+04  9.20143E+03 -1.74145E+03  2.22193E+03  6.01444E+03
 -6.49284E+03  2.23482E+03 -4.98362E+03 -5.35779E+03 -1.11405E+02 -1.19651E+04  9.04955E+03 -1.24272E+04
  1.59342E+04 -7.15925E+03  1.60864E+04  2.95188E+03  1.40193E+04  1.26588E+04  6.91484E+03  1.86877E+04
 -2.64421E+03  2.02302E+04 -1.30088E+04  1.22224E+04 -1.42281E+04  3.50800E+03 -1.04926E+04 -3.23925E+03
 -5.83805E+03 -3.98874E+03 -7.76874E+02  7.59413E+02 -2.79141E+03  2.08204E+03 -4.42925E+03  3.70504E+03
 -9.50003E+03 -6.41845E+02 -9.90408E+03 -8.65137E+03 -4.55523E+03 -1.41660E+04  3.89269E+03 -1.07837E+04
  8.40678E+03 -4.52775E+03  5.80993E+03  2.33351E+03  2.88829E+02  3.58425E+03 -4.86681E+03  5.77790E+01
 -4.11226E+03 -6.24996E+03 -6.67779E+02 -9.37951E+03  5.51203E+03 -9.70084E+03  1.23377E+04 -5.19038E+03
  1.52160E+04  1.03023E+03  1.06733E+04  8.24688E+03  1.80268E+03  1.17191E+04 -6.38451E+03  1.03826E+04
 -8.05755E+03  3.61228E+03 -4.22675E+03 -1.41278E+03  1.10775E+03 -3.02462E+03  5.89540E+03 -1.01108E+03
  4.35042E+03  4.43074E+03  1.13660E+03  7.37552E+03 -5.95480E+03  7.70885E+03 -1.07604E+04  1.61691E+03
 -6.69479E+03 -4.62003E+03  2.83959E+02 -8.62876E+03  4.88970E+03 -3.87467E+03  5.42557E+03  2.23084E+03
  9.09863E+02  5.04606E+03 -5.31663E+03  6.05578E+03 -6.89197E+03  3.24746E+03 -7.11445E+03 -2.19352E+03
 -4.12602E+03 -8.86309E+03  2.31216E+03 -9.82142E+03  8.18280E+03 -6.35102E+03  9.17463E+03  1.20435E+03
  6.21743E+03  7.22800E+03  1.99883E+02  1.02940E+04 -6.49749E+03  5.48543E+03 -7.38977E+03 -1.01747E+03
 -6.85808E+03 -6.70385E+03 -1.48046E+03 -6.87480E+03  4.14846E+03 -5.97783E+03  4.11912E+03 -3.37220E+03
  3.61400E+03  9.40937E+02  1.15965E+01  1.23999E+03  2.41656E+01 -8.30250E+02  3.11547E+02 -3.46835E+03
  5.60547E+03 -1.75861E+03  8.12955E+03  5.45543E+02  7.95984E+03  5.00849E+03  6.67907E+03  1.09380E+04
 -2.35269E+03  1.25965E+04 -1.00455E+04  9.05452E+03 -1.40280E+04  1.43398E+03 -1.00772E+04 -5.14789E+03
 -6.04945E+03 -8.50264E+03 -4.46557E+02 -7.51533E+03  3.32183E+03 -3.28688E+03  2.64451E+03 -3.08148E+03
  1.97666E+03 -2.33874E+03  2.50381E+03 -2.73463E+03  4.11905E+03 -1.77761E+03  4.67253E+03  7.92961E+01
  6.36416E+03  1.53858E+03  2.99963E+03  5.07157E+03 -2.17123E+03  5.02879E+03 -6.04100E+03  4.00224E+03
 -7.50943E+03 -1.08369E+03 -3.63720E+03 -5.19869E+03 -1.33039E+02 -7.61888E+03  4.28495E+03 -8.18046E+03
  7.41134E+03 -3.92520E+03  9.58795E+03  1.40396E+03  7.20668E+03  7.19173E+03  1.32367E+03  9.40366E+03
 -3.37306E+03  7.28731E+03 -4.77176E+03  2.27552E+03 -3.40510E+03 -1.30044E+03 -1.13566E+03 -9.53666E+02
 -8.13763E+02  5.91413E+02 -1.86901E+03  2.07743E+03 -3.72460E+03  1.85029E+03 -5.96392E+03 -8.69464E+02
 -2.40068E+03 -5.62864E+03  7.83308E+02 -7.44089E+03  3.78960E+03 -6.71918E+03  6.50225E+03 -1.87108E+03
  6.59628E+03  3.36786E+03  2.70540E+03  5.67439E+03 -1.46195E+03  6.68640E+03 -4.79425E+03  4.19936E+03
 -6.02260E+03  3.42404E+02 -4.66124E+03 -4.49024E+03 -1.06150E+03 -5.16186E+03  2.80190E+03 -4.04736E+03
  3.89712E+03 -1.77994E+03  2.59296E+03  3.76627E+02  1.00980E+03  2.38770E+03  6.84163E+02  1.10292E+03
  1.74201E+03  9.31383E+02  2.40046E+03  1.25811E+03  2.00939E+03  2.27854E+03  1.43489E+03  2.59890E+03
 -1.37262E+03  5.16389E+03 -4.66329E+03  6.36520E+03 -6.31795E+03  1.19990E+03 -7.26428E+03 -2.18644E+03
 -3.14672E+03 -5.82125E+03  4.36894E+02 -7.67634E+03  3.15141E+03 -4.57562E+03  5.38867E+03 -1.56576E+03
  3.97997E+03  2.48969E+03  1.65053E+03  3.24202E+03 -1.01805E+03  2.51761E+03 -2.60841E+03 -2.90967E+02
 -1.19834E+03 -2.59101E+03  1.63648E+03 -2.76054E+03  2.16221E+03 -1.47973E+03  2.17639E+03  5.39973E+02
  1.30378E+03  1.02676E+03  1.26435E+03  9.52026E+01 -6.02406E+02  1.35474E+03  1.22997E+03 -3.35158E+02
  4.09408E+02  1.65546E+02  3.32426E+03  8.60233E+02  1.12156E+03  3.26446E+03 -2.33509E+02  4.14642E+03
 -3.17798E+03  2.11590E+03 -3.79004E+03  8.35645E+02 -3.53657E+03 -1.08453E+03 -9.75900E+02 -1.63668E+03
  7.10980E+02 -2.17933E+03  1.30178E+03 -1.42101E+03  1.52863E+03  2.08068E+03 -1.39483E+02  2.39841E+03
 -2.59282E+03  1.77792E+03 -2.52542E+03 -1.70671E+03 -1.65695E+03 -3.92701E+03  1.50113E+02 -3.16571E+03
  2.18834E+03 -1.80494E+03  1.42006E+03 -1.14457E+02  2.04584E+03  6.09866E+02  6.79304E+02  1.17218E+03
 -1.07965E+03  4.59602E+02 -1.23203E+03 -6.33343E+02  5.73175E+02 -1.76970E+03  2.99426E+03 -6.02471E+02
  3.01415E+03  5.00567E+02  4.06603E+03  1.96995E+03  1.31291E+03  3.31039E+03 -8.28213E+02  2.81963E+03
 -2.73116E+03  1.02687E+03 -2.92151E+03 -5.42354E+02 -1.58432E+03 -2.80893E+03  7.21168E+02 -2.09197E+03
  2.03231E+03 -1.28529E+03  1.44106E+03  1.02133E+03  1.75474E+02  2.92855E+03 -4.86520E+02  1.82377E+03
 -5.46314E+02  1.28387E+03 -8.87116E+02 -8.71699E+01 -3.44786E+02 -1.93864E+02 -1.09737E+03  4.23423E+02
 -1.05741E+03  1.61065E+03 -2.13857E+03  8.77893E+02 -3.82247E+03  3.57155E+02 -3.93728E+03 -2.26419E+03
 -2.42979E+03 -4.61485E+03  3.11656E+02 -5.29600E+03  3.34133E+03 -4.39406E+03  4.77437E+03 -1.91440E+03
  4.26964E+03  9.09619E+02  2.54452E+03  3.34671E+03 -1.12048E+02  3.22736E+03 -1.21560E+03  2.59332E+03
 -2.04909E+03  9.72890E+02 -5.51349E+02 -2.80107E+02 -9.78321E+02 -1.21996E+02 -8.35871E+02  4.20611E+02
 -8.46100E+02  6.47538E+02 -1.51309E+03 -3.01778E+02 -5.26995E+02 -8.28877E+02 -4.07980E+02 -1.16933E+03
  2.03003E+03 -8.47200E+02  1.43139E+03  7.34021E+01  2.56031E+03  2.48386E+03 -1.14720E+01  3.40729E+03
 -2.39208E+03  4.31629E+03 -2.77160E+03  2.77849E+03 -3.40088E+03 -1.01017E+03 -2.48771E+03 -2.33728E+03
 -9.10408E+02 -2.60989E+03  3.26521E+02 -3.06524E+03  2.10208E+03 -1.02304E+03  1.88512E+03  3.28663E+02
  1.43810E+03  5.16409E+02 -1.05428E+02  7.89164E+02 -1.42780E+02 -2.70807E+02 -4.81096E+02 -5.56420E+02
  1.37263E+03  5.66825E+02  6.99676E+02  5.82147E+02  8.81459E+02  9.20955E+02  2.39203E+02  8.69377E+02
 -1.23799E+03  1.49720E+03 -2.23064E+03  8.34886E+02 -2.02860E+03 -1.69005E+03 -5.02893E+02 -2.81240E+03
  1.69439E+03 -2.12089E+03  1.97397E+03 -7.08523E+02  2.10134E+03  3.54556E+02  9.66836E+02  2.13711E+03
  7.10092E+02  1.45775E+03 -5.19488E+02  1.99163E+03 -8.47525E+02  1.01804E+03 -8.65465E+02  4.29997E+02
 -5.39313E+02  2.82736E+02 -2.17536E+02 -8.73440E+01 -1.38243E+03  2.56137E+02 -1.24885E+03 -6.20487E+02
 -1.82166E+03 -7.14183E+02 -1.22762E+03 -2.24651E+03  9.13884E+02 -2.19296E+03  1.87622E+03 -1.06408E+03
  2.46320E+03 -8.06615E+01  8.14943E+02  1.45464E+03 -3.16142E+02  1.87347E+03 -1.14358E+03  1.38758E+03
