 $NMID ID='MM_0lb_SNR400_12hz_g40_11.RAW', FMTDAT='(8E13.5)'
 TRAMP=1., VOLUME=1. $END
  3.10488E+05 -2.85649E+02  3.38082E+05  2.50406E+05  8.51165E+04  3.37806E+05 -1.32512E+05  2.51217E+05
 -1.90137E+05  8.28492E+04 -1.12562E+05 -3.23966E+04  2.29762E+02 -5.08972E+04  5.37442E+04  3.98730E+02
  3.46521E+04  5.21389E+04 -1.62429E+04  7.59178E+04 -6.07986E+04  6.39196E+04 -8.41687E+04  3.21307E+04
 -8.09710E+04 -1.17867E+04 -5.73172E+04 -5.11149E+04 -1.45374E+04 -6.96608E+04  2.79004E+04 -4.56975E+04
  4.07733E+04  3.64590E+03  1.64155E+04  4.85847E+04 -3.43780E+04  4.71823E+04 -6.71269E+04 -1.81458E+02
 -5.39176E+04 -5.72007E+04 -6.61446E+03 -7.70428E+04  3.38435E+04 -5.51035E+04  4.90917E+04 -1.76601E+04
  4.33345E+04  1.06797E+04  3.18873E+04  2.53200E+04  1.51204E+04  2.94017E+04 -5.88859E+03  2.70867E+04
 -2.20350E+04  1.21524E+04 -1.82645E+04 -4.86403E+03  5.90006E+03 -7.28831E+03  2.21269E+04  1.25624E+04
  7.29421E+03  3.56438E+04 -3.19886E+04  3.57519E+04 -6.39451E+04  2.60376E+03 -5.66521E+04 -4.33189E+04
 -1.29397E+04 -6.37471E+04  3.99199E+04 -4.54467E+04  5.87125E+04 -2.52317E+03  3.44462E+04  3.30997E+04
 -6.81534E+03  3.63475E+04 -3.04147E+04  1.63387E+04 -3.09327E+04 -4.05084E+03 -1.72144E+04 -1.09695E+04
 -8.51487E+03 -1.30340E+04 -3.94042E+02 -1.84696E+04  7.17156E+03 -2.27654E+04  1.56064E+04 -1.32273E+04
  1.13600E+04  5.44289E+03 -8.12599E+03  1.24914E+04 -2.14377E+04 -4.16514E+03 -7.87114E+03 -3.40102E+04
  2.33468E+04 -4.41420E+04  4.93196E+04 -2.08132E+04  4.59960E+04  1.99642E+04  1.57535E+04  4.51558E+04
 -1.63284E+04  3.38750E+04 -2.65585E+04  1.67772E+03 -1.05237E+04 -2.77985E+04  2.14517E+04 -3.37723E+04
  4.10840E+04 -9.44666E+03  3.59590E+04  2.39925E+04  1.88001E+04  4.68178E+04 -8.25796E+03  5.11165E+04
 -3.24779E+04  3.47698E+04 -4.26496E+04  9.79345E+03 -4.29261E+04 -1.69300E+04 -2.36642E+04 -3.83932E+04
  7.17495E+03 -3.86752E+04  3.19753E+04 -1.50231E+04  2.93586E+04  1.09719E+04  4.36278E+03  1.99391E+04
 -1.41862E+04  8.31171E+03 -1.02562E+04 -7.92112E+03  5.79136E+03 -1.08590E+04  1.79566E+04  6.05642E+03
  1.39445E+04  2.20080E+04 -6.19591E+03  2.53898E+04 -2.22139E+04  1.17948E+04 -2.87511E+04 -4.17986E+03
 -2.07026E+04 -1.75052E+04 -8.89011E+03 -2.06495E+04  4.03545E+03 -2.07967E+04  1.67676E+04 -1.93412E+04
  2.68903E+04 -1.32920E+04  3.30775E+04  3.43433E+03  2.53764E+04  2.06649E+04  4.29791E+03  3.68199E+04
 -1.83023E+04  3.17324E+04 -2.81391E+04  1.08738E+04 -2.10102E+04 -1.00970E+04 -4.45328E+03 -1.29250E+04
  1.48982E+03 -2.17530E+03 -5.64365E+03  7.53570E+03 -1.68218E+04  5.45432E+03 -1.70969E+04 -7.85990E+03
 -1.02544E+04 -2.01801E+04  5.22561E+03 -2.39780E+04  1.71453E+04 -1.71496E+04  1.93041E+04 -7.67179E+02
  1.24357E+04  1.41670E+04 -9.57009E+02  2.06223E+04 -1.37309E+04  1.06681E+04 -2.09057E+04 -4.55214E+03
 -1.42575E+04 -1.76523E+04 -1.73352E+03 -2.38131E+04  1.02961E+04 -1.96204E+04  2.03709E+04 -1.00187E+04
  1.74871E+04 -6.07087E+01  1.40171E+04  3.89391E+03  7.13769E+03  9.88280E+02  1.05865E+04 -1.63387E+03
  1.84183E+04  3.09088E+03  2.04314E+04  1.60103E+04  1.45557E+04  3.14300E+04 -2.53092E+03  3.65113E+04
 -2.16920E+04  2.92014E+04 -3.41013E+04  1.50243E+04 -3.60814E+04 -2.56809E+03 -2.97297E+04 -2.07322E+04
 -1.26469E+04 -2.96575E+04  1.05585E+04 -2.72504E+04  2.23035E+04 -1.32679E+04  2.06444E+04  6.09021E+03
  6.62849E+03  1.47882E+04 -9.55518E+03  1.33837E+04 -1.71173E+04  2.50360E+03 -1.26268E+04 -1.06253E+04
 -1.16242E+02 -1.61159E+04  8.06336E+03 -1.18174E+04  1.07477E+04 -1.08816E+03  2.28821E+03  7.27256E+03
 -6.53645E+03  2.46046E+03 -7.12647E+03 -5.61967E+03 -4.89712E+02 -1.43934E+04  9.76920E+03 -1.52878E+04
  1.85463E+04 -8.28967E+03  1.94948E+04  2.53469E+03  1.71401E+04  1.44139E+04  7.63113E+03  2.20798E+04
 -4.42124E+03  2.44488E+04 -1.53590E+04  1.50869E+04 -1.78465E+04  3.93610E+03 -1.28089E+04 -3.53431E+03
 -5.26684E+03 -5.67752E+03 -1.36261E+02  7.91462E+02 -2.06467E+03  2.93600E+03 -6.01247E+03  4.66791E+03
 -1.17302E+04 -7.06551E+02 -1.17698E+04 -9.64296E+03 -4.98936E+03 -1.60264E+04  4.75092E+03 -1.29646E+04
  9.65219E+03 -5.44099E+03  7.43637E+03  2.94904E+03  3.50867E+02  4.96909E+03 -5.65485E+03  7.39036E+01
 -5.84258E+03 -7.83816E+03 -1.64122E+03 -1.14863E+04  7.27384E+03 -1.29430E+04  1.55924E+04 -6.27270E+03
  1.79139E+04  1.29924E+03  1.28549E+04  1.00599E+04  2.75226E+03  1.47607E+04 -7.55892E+03  1.19872E+04
 -1.02061E+04  3.73552E+03 -4.88538E+03 -2.48451E+03  2.34393E+03 -3.49451E+03  7.24443E+03 -1.28889E+03
  5.73707E+03  5.39416E+03  1.17256E+03  9.43888E+03 -6.73656E+03  9.95834E+03 -1.18288E+04  2.87358E+03
 -7.94545E+03 -6.09481E+03  1.22036E+02 -1.02045E+04  6.50397E+03 -5.43260E+03  6.37480E+03  2.59233E+03
  6.81920E+02  6.49264E+03 -6.57293E+03  8.43147E+03 -9.45930E+03  3.77502E+03 -9.86292E+03 -3.56081E+03
 -4.81776E+03 -1.18809E+04  2.91241E+03 -1.32495E+04  1.13985E+04 -8.12391E+03  1.22409E+04  2.27720E+03
  7.30518E+03  9.91329E+03 -5.02711E+02  1.16875E+04 -8.80552E+03  6.67513E+03 -9.65316E+03 -1.18686E+03
 -8.47107E+03 -8.08416E+03 -8.05347E+02 -8.71863E+03  4.55565E+03 -7.67296E+03  5.54092E+03 -2.86192E+03
  4.13893E+03  1.42425E+03 -8.99410E+02  1.47286E+03 -2.33615E+02 -2.52551E+03  1.23359E+03 -5.04799E+03
  8.04759E+03 -3.52028E+03  1.11670E+04  9.90765E+02  1.06924E+04  7.72519E+03  8.41527E+03  1.47740E+04
 -2.88438E+03  1.67445E+04 -1.32590E+04  1.20512E+04 -1.84801E+04  2.63553E+03 -1.46080E+04 -5.98645E+03
 -7.11027E+03 -1.18490E+04 -3.86185E+02 -1.03654E+04  3.94342E+03 -5.07521E+03  3.16075E+03 -3.60516E+03
  2.89322E+03 -2.25140E+03  3.27756E+03 -3.22965E+03  4.00327E+03 -2.58566E+03  6.22544E+03 -5.57295E+02
  7.75162E+03  1.72781E+03  3.79845E+03  6.77520E+03 -2.17051E+03  6.63262E+03 -7.94212E+03  5.94841E+03
 -9.60860E+03 -1.25390E+03 -5.59418E+03 -6.71665E+03 -6.78808E+02 -1.09564E+04  5.70168E+03 -1.12274E+04
  1.09713E+04 -6.32662E+03  1.32310E+04  1.50271E+03  9.42958E+03  9.65782E+03  1.54711E+03  1.19159E+04
 -4.32446E+03  1.09013E+04 -7.31204E+03  3.46960E+03 -4.97815E+03 -1.29636E+03 -1.19714E+03 -1.85644E+03
 -1.54484E+03 -2.95666E+02 -2.52093E+03  2.30725E+03 -4.53473E+03  1.74657E+03 -7.48221E+03 -1.18219E+03
 -4.73898E+03 -7.22157E+03  5.29350E+01 -9.64223E+03  5.82938E+03 -9.08644E+03  9.06542E+03 -2.50647E+03
  9.57689E+03  5.23900E+03  3.79848E+03  9.03429E+03 -2.38053E+03  9.74170E+03 -6.12325E+03  5.09017E+03
 -8.47711E+03  3.20636E+02 -7.34995E+03 -5.68763E+03 -1.05876E+03 -8.15025E+03  4.18364E+03 -5.84847E+03
  6.07242E+03 -2.57248E+03  4.13301E+03  1.56190E+03  1.61542E+03  2.50748E+03  1.42294E+03  1.58006E+03
  2.02505E+03  3.07381E+02  1.99917E+03  1.23475E+03  2.69826E+03  4.23483E+03  2.27992E+03  4.83094E+03
 -2.12220E+03  6.67334E+03 -6.55507E+03  7.93009E+03 -9.24886E+03  2.08883E+03 -1.01793E+04 -3.47418E+03
 -5.03177E+03 -8.86307E+03  1.64837E+03 -1.01387E+04  5.73960E+03 -6.69085E+03  7.92633E+03 -1.89729E+03
  6.15198E+03  3.78529E+03  1.60512E+03  4.72243E+03 -2.72423E+03  3.17934E+03 -3.35545E+03 -1.17806E+03
 -1.27376E+03 -3.66709E+03  2.87985E+03 -3.89289E+03  3.23938E+03 -2.47092E+03  3.25451E+03  1.17598E+03
  2.54417E+03  1.73249E+03  1.39080E+03  1.66832E+03 -7.76603E+02  8.83132E+02  1.64357E+03 -7.27915E+02
  8.40697E+02 -4.92404E+02  4.06356E+03  1.68134E+03  2.48336E+03  5.73355E+03 -1.33681E+03  6.78059E+03
 -5.09078E+03  4.08944E+03 -5.70259E+03  1.30717E+03 -6.07564E+03 -1.26813E+03 -1.58505E+03 -3.56462E+03
  6.68363E+02 -2.72189E+03  2.30118E+03 -1.78070E+03  2.03375E+03  2.53038E+03 -9.36308E+02  3.28235E+03
 -3.53540E+03  2.05405E+03 -4.33462E+03 -2.04772E+03 -2.48200E+03 -4.58444E+03  1.77076E+02 -5.16015E+03
  2.18508E+03 -2.32425E+03  3.32636E+03  1.02480E+02  2.77853E+03  6.38559E+02  3.86236E+02  2.09336E+03
 -1.87886E+03  8.91842E+01 -2.62998E+03 -2.05332E+03  8.65705E+02 -3.04765E+03  3.78756E+03 -2.33942E+03
  5.38320E+03  5.17892E+02  5.32193E+03  3.62313E+03  2.46053E+03  5.35759E+03 -1.77871E+03  5.61357E+03
 -4.97800E+03  2.05981E+03 -5.48530E+03 -7.86885E+02 -2.57380E+03 -3.88046E+03  7.93654E+02 -3.05982E+03
  3.37117E+03 -1.22473E+03  2.16592E+03  1.25500E+03  2.09350E+02  3.31561E+03 -6.89371E+02  3.59410E+03
 -1.29474E+03  3.03891E+03 -1.49511E+03  1.23434E+03 -1.16293E+03  1.29837E+03 -1.80734E+03  1.41227E+03
 -2.00159E+03  2.42800E+03 -3.64438E+03  2.06767E+03 -5.54570E+03  7.70176E+01 -6.39688E+03 -3.80317E+03
 -4.04102E+03 -7.70839E+03  1.60337E+03 -8.57084E+03  4.92468E+03 -6.96358E+03  7.79296E+03 -2.97877E+03
  7.49139E+03  1.28024E+03  4.62760E+03  5.20184E+03 -1.37181E+02  5.64894E+03 -2.19082E+03  4.40724E+03
 -3.40157E+03  1.57529E+03 -2.19964E+03 -7.28490E+02 -2.72510E+02 -5.67786E+02 -8.78165E+02 -2.60377E+02
 -1.60545E+03 -2.13911E+02 -1.82384E+03 -2.46374E+02  8.09706E+01 -1.57845E+03 -1.96800E+02 -2.24933E+03
  2.41534E+03 -1.26593E+03  3.13295E+03 -1.09177E+02  3.93847E+03  3.66709E+03  8.64505E+02  5.60461E+03
 -2.90174E+03  7.15218E+03 -6.28093E+03  3.83346E+03 -7.23132E+03 -6.50486E+02 -5.10473E+03 -4.42883E+03
 -2.35332E+03 -5.65908E+03  1.29081E+03 -5.42770E+03  2.92476E+03 -2.95353E+03  3.10241E+03  6.25289E+02
  1.86081E+03  1.52039E+03  2.18974E+02  1.85909E+03 -1.34771E+03 -1.83310E+02  4.39704E+02 -1.23430E+03
  8.06424E+02 -2.21758E+02  1.83224E+03  5.95313E+02  8.46542E+02  2.17491E+03 -2.20427E+01  2.57953E+03
 -2.20495E+03  2.26221E+03 -3.61413E+03  5.97908E+02 -3.34185E+03 -2.09062E+03 -9.02263E+02 -4.63195E+03
  3.15954E+03 -4.16109E+03  4.36911E+03 -6.86246E+02  3.65386E+03  5.76924E+02  2.90075E+03  3.81983E+03
  3.88904E+02  3.55778E+03 -1.48565E+03  2.95710E+03 -2.51079E+03  2.53665E+03 -1.69400E+03 -1.28927E+02
 -1.11288E+03 -1.30810E+03 -1.17789E+03  3.94660E+02 -1.64888E+03  1.00211E+03 -3.03406E+03 -5.53609E+02
 -3.07276E+03 -1.53885E+03 -7.67883E+02 -4.02716E+03  2.02193E+03 -4.00553E+03  3.28537E+03 -1.37987E+03
  3.34367E+03  1.36075E+02  1.31740E+03  2.01958E+03  1.56156E+02  3.21002E+03 -2.12761E+03  2.37716E+03
