 $NMID ID='MM_0lb_SNR400_13hz_g40_94.RAW', FMTDAT='(8E13.5)'
 TRAMP=1., VOLUME=1. $END
  3.09526E+05  2.57881E+02  3.37841E+05  2.50268E+05  8.47687E+04  3.37686E+05 -1.32186E+05  2.50894E+05
 -1.89997E+05  8.30372E+04 -1.11276E+05 -3.30663E+04  1.12681E+03 -5.04846E+04  5.34249E+04 -3.95790E+02
  3.49009E+04  5.25368E+04 -1.64336E+04  7.48829E+04 -6.06350E+04  6.33046E+04 -8.30202E+04  3.15265E+04
 -8.12790E+04 -1.17020E+04 -5.73028E+04 -5.16100E+04 -1.42296E+04 -6.91588E+04  2.72028E+04 -4.55830E+04
  4.01805E+04  3.96861E+03  1.57716E+04  4.72582E+04 -3.43082E+04  4.70437E+04 -6.65254E+04  3.95350E+02
 -5.39157E+04 -5.73388E+04 -7.33269E+03 -7.67814E+04  3.41273E+04 -5.59320E+04  4.75581E+04 -1.76721E+04
  4.31961E+04  1.13011E+04  3.18041E+04  2.51095E+04  1.58351E+04  2.99926E+04 -5.17619E+03  2.79000E+04
 -2.13970E+04  1.22122E+04 -1.83932E+04 -4.92766E+03  5.80163E+03 -6.80148E+03  2.20007E+04  1.21907E+04
  7.38423E+03  3.46769E+04 -3.20538E+04  3.60618E+04 -6.36877E+04  2.08355E+03 -5.72872E+04 -4.23786E+04
 -1.24521E+04 -6.28393E+04  3.94958E+04 -4.52557E+04  5.78993E+04 -2.53353E+03  3.36438E+04  3.20862E+04
 -5.71828E+03  3.61489E+04 -2.99003E+04  1.55607E+04 -3.06076E+04 -4.89750E+03 -1.72040E+04 -1.11840E+04
 -7.93681E+03 -1.31332E+04 -5.21453E+02 -1.79208E+04  7.88543E+03 -2.32572E+04  1.50486E+04 -1.37108E+04
  1.07944E+04  5.91217E+03 -8.72958E+03  1.35280E+04 -2.18646E+04 -4.45805E+03 -8.43963E+03 -3.38534E+04
  2.26882E+04 -4.33947E+04  4.78899E+04 -1.96739E+04  4.46449E+04  1.91834E+04  1.54372E+04  4.45142E+04
 -1.67675E+04  3.29398E+04 -2.52492E+04  1.32169E+03 -9.79533E+03 -2.81757E+04  2.06139E+04 -3.40929E+04
  4.06231E+04 -8.45294E+03  3.55271E+04  2.33150E+04  1.76590E+04  4.62432E+04 -7.62535E+03  5.06419E+04
 -3.18284E+04  3.37115E+04 -4.16656E+04  9.95385E+03 -4.23140E+04 -1.68323E+04 -2.36057E+04 -3.79109E+04
  7.01906E+03 -3.82088E+04  3.18030E+04 -1.44207E+04  2.91894E+04  1.07441E+04  3.43379E+03  1.91635E+04
 -1.34190E+04  8.30612E+03 -1.03223E+04 -7.86657E+03  5.77789E+03 -1.04841E+04  1.80695E+04  5.84794E+03
  1.33389E+04  2.12798E+04 -6.07472E+03  2.49558E+04 -2.27455E+04  1.20625E+04 -2.79389E+04 -4.46582E+03
 -2.01361E+04 -1.71441E+04 -8.72537E+03 -2.12839E+04  4.07348E+03 -1.91946E+04  1.57030E+04 -1.73176E+04
  2.58311E+04 -1.31517E+04  3.25217E+04  2.75478E+03  2.35893E+04  2.00269E+04  4.95773E+03  3.64104E+04
 -1.74400E+04  3.09872E+04 -2.78966E+04  1.01727E+04 -2.06518E+04 -1.01585E+04 -4.65002E+03 -1.36478E+04
  2.13815E+03 -2.64934E+03 -4.87833E+03  6.99892E+03 -1.57960E+04  5.07979E+03 -1.62860E+04 -6.60234E+03
 -1.09866E+04 -1.93697E+04  5.33312E+03 -2.36532E+04  1.55129E+04 -1.68538E+04  1.80737E+04 -1.21235E+03
  1.11448E+04  1.29200E+04 -8.91678E+02  1.91529E+04 -1.28676E+04  1.10333E+04 -1.91641E+04 -4.40124E+03
 -1.42194E+04 -1.68400E+04 -1.65550E+03 -2.30308E+04  1.07389E+04 -1.95073E+04  1.91535E+04 -9.50421E+03
  1.80071E+04  9.72714E+02  1.28131E+04  5.02574E+03  6.67691E+03  5.26717E+02  9.17278E+03 -1.46861E+03
  1.71523E+04  3.50096E+03  1.93076E+04  1.47436E+04  1.27304E+04  3.08538E+04 -2.61148E+03  3.50362E+04
 -2.01465E+04  2.70184E+04 -3.21494E+04  1.42775E+04 -3.34889E+04 -2.53493E+03 -2.76266E+04 -1.94511E+04
 -1.23493E+04 -2.76955E+04  9.54607E+03 -2.50479E+04  2.15918E+04 -1.29146E+04  1.95182E+04  5.09933E+03
  7.25368E+03  1.40923E+04 -9.41776E+03  1.29791E+04 -1.62429E+04  2.15280E+03 -1.24711E+04 -1.03118E+04
 -5.75571E+02 -1.56618E+04  8.17483E+03 -1.17729E+04  1.02783E+04 -1.19446E+03  2.00523E+03  6.94001E+03
 -5.71062E+03  2.28360E+03 -6.06655E+03 -5.46057E+03 -4.99188E+02 -1.40904E+04  9.53836E+03 -1.43166E+04
  1.81297E+04 -7.72841E+03  1.88624E+04  2.80647E+03  1.59069E+04  1.30622E+04  6.75133E+03  2.08464E+04
 -3.32992E+03  2.24504E+04 -1.46559E+04  1.41072E+04 -1.60747E+04  3.49877E+03 -1.10263E+04 -3.32344E+03
 -5.47911E+03 -5.45969E+03 -7.81613E+02  9.90498E+02 -2.34660E+03  2.88636E+03 -5.25069E+03  4.51784E+03
 -1.02643E+04 -8.96567E+02 -1.09506E+04 -9.14797E+03 -3.83941E+03 -1.53298E+04  4.78410E+03 -1.12967E+04
  1.00004E+04 -5.20744E+03  7.02866E+03  3.09216E+03  4.69709E+02  4.60841E+03 -5.52056E+03 -3.75527E+02
 -4.94518E+03 -7.53468E+03 -8.85618E+02 -1.02881E+04  6.28185E+03 -1.17603E+04  1.44739E+04 -5.71950E+03
  1.65402E+04  1.38260E+03  1.26221E+04  1.02714E+04  2.42134E+03  1.31285E+04 -6.67219E+03  1.10936E+04
 -9.64931E+03  3.55353E+03 -4.87872E+03 -2.04317E+03  1.76444E+03 -2.76791E+03  6.66956E+03 -1.29582E+03
  5.49299E+03  4.39678E+03  9.75131E+02  9.18609E+03 -6.61487E+03  9.42850E+03 -1.11070E+04  2.39308E+03
 -8.08756E+03 -5.82655E+03  6.26102E+02 -9.49450E+03  6.30867E+03 -4.93322E+03  5.64612E+03  1.76138E+03
  9.07331E+02  5.79930E+03 -5.95361E+03  7.51309E+03 -8.63848E+03  3.01607E+03 -8.30529E+03 -3.54200E+03
 -4.16476E+03 -1.00360E+04  2.35497E+03 -1.19387E+04  1.03879E+04 -7.12904E+03  1.10217E+04  1.85684E+03
  6.67022E+03  8.63974E+03 -6.65592E+02  1.08666E+04 -8.06036E+03  6.01518E+03 -8.93725E+03 -7.09398E+02
 -7.95670E+03 -7.12663E+03 -1.01398E+03 -7.70478E+03  4.09819E+03 -7.34889E+03  5.05969E+03 -3.29262E+03
  3.68205E+03  2.13490E+03 -2.53046E+02  1.91375E+03  1.56107E+02 -1.73258E+03  1.04942E+03 -4.59467E+03
  7.00416E+03 -2.04783E+03  9.59510E+03  7.85080E+02  1.03067E+04  6.41369E+03  7.38912E+03  1.31035E+04
 -2.50621E+03  1.48858E+04 -1.23856E+04  1.14897E+04 -1.69923E+04  1.86998E+03 -1.38228E+04 -5.24634E+03
 -6.64209E+03 -1.05353E+04 -8.33434E+02 -8.56850E+03  3.62033E+03 -4.65932E+03  2.68966E+03 -3.39818E+03
  2.00541E+03 -2.08284E+03  2.96269E+03 -3.20917E+03  4.30188E+03 -2.45099E+03  5.45478E+03  3.72947E+02
  7.33109E+03  1.76521E+03  3.28201E+03  6.28716E+03 -1.14724E+03  6.09514E+03 -6.96924E+03  4.87052E+03
 -8.91932E+03 -1.18339E+03 -5.04464E+03 -6.13922E+03  4.00192E+02 -9.21258E+03  6.15240E+03 -9.58665E+03
  9.48014E+03 -5.48131E+03  1.23612E+04  1.37874E+03  8.13816E+03  8.10228E+03  1.93555E+03  1.05060E+04
 -4.31533E+03  9.34028E+03 -6.27855E+03  3.39176E+03 -5.18237E+03 -1.42384E+03 -6.63307E+02 -1.17160E+03
 -1.06225E+03  3.42692E+02 -2.00382E+03  1.71761E+03 -3.51234E+03  1.55169E+03 -6.65831E+03 -6.68486E+02
 -3.34227E+03 -6.99809E+03  1.09752E+03 -8.64772E+03  5.79489E+03 -7.42864E+03  7.44579E+03 -2.45840E+03
  8.32775E+03  3.82547E+03  3.87821E+03  7.11387E+03 -2.21416E+03  8.24653E+03 -5.75540E+03  5.26261E+03
 -7.25876E+03 -8.03595E+01 -6.54891E+03 -4.68125E+03 -7.70962E+02 -6.58283E+03  3.27364E+03 -5.60919E+03
  5.26838E+03 -1.98329E+03  3.77684E+03  1.05313E+03  1.29190E+03  2.98037E+03  1.32272E+03  1.72628E+03
  2.39023E+03  7.83085E+02  1.68676E+03  1.44227E+03  2.37079E+03  4.38477E+03  2.53481E+03  4.24533E+03
 -1.52854E+03  6.00107E+03 -6.08276E+03  6.87267E+03 -7.54992E+03  1.94161E+03 -8.52386E+03 -2.04884E+03
 -4.32638E+03 -8.50344E+03  1.80395E+03 -1.00935E+04  4.69031E+03 -5.11821E+03  6.56281E+03 -1.80831E+03
  5.28625E+03  3.94778E+03  1.30402E+03  4.35390E+03 -1.94224E+03  2.85832E+03 -2.34764E+03 -5.26338E+02
 -2.02408E+03 -3.71630E+03  2.11177E+03 -3.34310E+03  3.31899E+03 -1.88741E+03  2.40262E+03  4.20938E+02
  1.99954E+03  1.10919E+03  9.75054E+02  1.01468E+03 -4.68688E+02  1.06431E+03  2.43407E+03 -5.12540E+02
  1.61620E+03 -6.43149E+02  3.99667E+03  1.49674E+03  1.52186E+03  4.30997E+03 -2.83716E+02  5.20561E+03
 -3.76056E+03  3.61624E+03 -5.33973E+03  5.19673E+02 -4.37190E+03 -2.10592E+03 -1.73138E+03 -2.67847E+03
  5.74316E+02 -2.93325E+03  2.01754E+03 -1.56045E+03  1.63248E+03  1.57055E+03 -1.13586E+03  1.96373E+03
 -3.25130E+03  1.88734E+03 -3.58967E+03 -2.12387E+03 -2.03057E+03 -4.70171E+03  3.74579E+02 -4.45421E+03
  2.45239E+03 -2.49419E+03  2.91232E+03 -1.57567E+02  2.06950E+03  7.23749E+02  4.00160E+02  2.48732E+03
 -1.08202E+03  5.27729E+02 -2.04402E+03 -7.46600E+02  6.77786E+02 -3.28687E+03  4.44015E+03 -2.70166E+03
  4.68389E+03 -8.20790E+01  5.31528E+03  3.08342E+03  1.76961E+03  4.31122E+03 -1.40934E+03  4.75359E+03
 -4.34992E+03  1.48444E+03 -4.21681E+03 -5.14815E+02 -2.07863E+03 -3.48160E+03  5.54549E+02 -2.35944E+03
  2.90969E+03 -1.01952E+03  2.95254E+03  1.21556E+03  9.22328E+02  3.44749E+03  1.00039E+02  2.11390E+03
 -1.07555E+03  1.51635E+03 -1.44713E+03  8.09034E+02 -2.17316E+02  2.51594E+02 -1.38280E+03  8.03115E+02
 -9.04637E+02  1.82658E+03 -3.41545E+03  1.22229E+03 -4.67917E+03  6.91190E+02 -5.69778E+03 -3.23904E+03
 -2.72869E+03 -6.10564E+03  1.47148E+03 -7.68239E+03  4.66670E+03 -5.66594E+03  6.96230E+03 -2.70195E+03
  6.41861E+03  1.25917E+03  4.41609E+03  4.58830E+03  9.51290E+01  4.37212E+03 -1.54560E+03  3.22735E+03
 -2.01734E+03  1.73464E+03 -1.66088E+03  3.28952E+02 -7.32052E+02 -5.26387E+02 -7.26562E+02 -2.30160E+02
 -1.83705E+03 -1.26166E+02 -1.52203E+03 -3.58348E+02 -3.31384E+02 -1.42260E+03 -2.98391E+02 -1.67768E+03
  2.19746E+03 -1.66083E+03  2.71887E+03  2.68931E+02  3.63739E+03  2.98602E+03  2.61995E+02  4.40596E+03
 -1.89821E+03  5.94557E+03 -5.41031E+03  2.77054E+03 -5.81677E+03 -9.98551E+01 -4.67588E+03 -3.45511E+03
 -2.24701E+03 -4.25034E+03  1.79032E+03 -4.36825E+03  2.57461E+03 -2.26403E+03  2.89516E+03  1.69503E+02
  2.15081E+03  1.29989E+03 -2.21988E+02  7.98240E+02 -1.17309E+03 -4.76239E+02 -2.61379E+02 -1.59118E+03
  1.67723E+03 -3.82882E+02  1.68280E+03  3.41574E+02  7.16168E+02  2.08785E+03  6.25609E+02  2.86726E+03
 -1.97866E+03  2.15495E+03 -2.45072E+03 -7.83956E+01 -2.47040E+03 -2.33527E+03 -4.41096E+02 -3.78722E+03
  2.64831E+03 -2.95424E+03  2.96653E+03 -9.66656E+02  3.30993E+03  1.73036E+02  1.94031E+03  2.55150E+03
 -1.86631E+02  2.26841E+03 -7.17541E+02  2.14366E+03 -1.53742E+03  1.71139E+03 -2.02459E+03  8.10161E+02
 -1.16447E+03  1.51253E+02 -9.76418E+02  7.87976E+02 -1.92942E+03  3.42998E+02 -1.93536E+03 -5.27472E+02
 -2.71678E+03 -7.91544E+02 -2.25237E+02 -3.04227E+03  1.99893E+03 -3.66039E+03  3.02371E+03 -1.53949E+03
  2.70921E+03  6.16068E+02  6.42710E+02  1.59613E+03 -2.02069E+02  3.07177E+03 -2.03681E+03  2.36471E+03
