 $NMID ID='MM_0lb_SNR400_9hz_g55_8.RAW', FMTDAT='(8E13.5)'
 TRAMP=1., VOLUME=1. $END
  3.09494E+05  3.48357E+01  3.37846E+05  2.50538E+05  8.52067E+04  3.38453E+05 -1.32943E+05  2.51403E+05
 -1.90454E+05  8.44531E+04 -1.12096E+05 -3.26589E+04  2.02472E+02 -5.01975E+04  5.36452E+04 -4.78887E+02
  3.54724E+04  5.37629E+04 -1.66929E+04  7.60717E+04 -6.13119E+04  6.43437E+04 -8.52924E+04  3.21811E+04
 -8.27815E+04 -1.09403E+04 -5.75916E+04 -5.32259E+04 -1.50784E+04 -7.12341E+04  2.85748E+04 -4.68284E+04
  4.18123E+04  2.95578E+03  1.72077E+04  4.82967E+04 -3.52040E+04  4.81562E+04 -6.87910E+04  3.48629E+02
 -5.54507E+04 -5.77846E+04 -6.92669E+03 -7.85419E+04  3.53083E+04 -5.75803E+04  5.01862E+04 -1.84903E+04
  4.50068E+04  1.17841E+04  3.27182E+04  2.64790E+04  1.64420E+04  3.05185E+04 -5.98610E+03  2.72636E+04
 -2.25227E+04  1.24559E+04 -1.84179E+04 -6.72010E+03  6.16706E+03 -6.45396E+03  2.34529E+04  1.38649E+04
  7.97047E+03  3.76399E+04 -3.44746E+04  3.77370E+04 -6.61558E+04  2.12531E+03 -5.91694E+04 -4.46296E+04
 -1.22405E+04 -6.58782E+04  4.17335E+04 -4.73878E+04  6.15544E+04 -3.05184E+03  3.78315E+04  3.41989E+04
 -5.27064E+03  3.93281E+04 -3.16148E+04  2.00562E+04 -3.24550E+04 -3.90610E+03 -1.93004E+04 -1.26749E+04
 -9.58652E+03 -1.52546E+04  9.69669E+01 -2.00372E+04  8.68910E+03 -2.37994E+04  1.58099E+04 -1.23698E+04
  9.71128E+03  6.06931E+03 -9.98953E+03  1.14516E+04 -2.42702E+04 -6.22895E+03 -8.85602E+03 -3.76465E+04
  2.55779E+04 -4.68414E+04  5.30986E+04 -2.06921E+04  4.89468E+04  2.08804E+04  1.69729E+04  4.69919E+04
 -1.62897E+04  3.60546E+04 -2.74125E+04  2.79018E+03 -1.14331E+04 -3.00887E+04  2.18915E+04 -3.68738E+04
  4.51731E+04 -1.10194E+04  4.06587E+04  2.44266E+04  2.16762E+04  5.14021E+04 -8.13758E+03  5.72775E+04
 -3.64074E+04  3.88322E+04 -4.75487E+04  1.11514E+04 -4.77565E+04 -1.84589E+04 -2.57345E+04 -4.25572E+04
  8.51859E+03 -4.25715E+04  3.46717E+04 -1.69489E+04  3.21898E+04  1.10056E+04  4.69977E+03  2.12736E+04
 -1.39424E+04  9.55677E+03 -1.12359E+04 -7.75769E+03  5.43217E+03 -1.14792E+04  1.77944E+04  5.27516E+03
  1.56485E+04  2.33012E+04 -5.94451E+03  2.79146E+04 -2.37323E+04  1.46441E+04 -3.21940E+04 -3.43138E+03
 -2.58695E+04 -1.89368E+04 -1.29848E+04 -2.54228E+04  5.22147E+03 -2.69092E+04  1.94320E+04 -2.28435E+04
  3.29863E+04 -1.39022E+04  3.87119E+04  5.19516E+03  2.76810E+04  2.53935E+04  4.18371E+03  4.17669E+04
 -2.02180E+04  3.49605E+04 -3.17103E+04  1.22359E+04 -2.29618E+04 -1.10234E+04 -4.68376E+03 -1.20948E+04
  5.55265E+02 -6.98063E+02 -7.06070E+03  8.53000E+03 -2.03775E+04  5.11697E+03 -2.06541E+04 -9.78604E+03
 -1.27906E+04 -2.36892E+04  5.72174E+03 -2.80250E+04  1.96132E+04 -1.99057E+04  2.27284E+04 -2.00618E+03
  1.42470E+04  1.62626E+04 -1.26058E+03  2.39862E+04 -1.70777E+04  1.31736E+04 -2.42320E+04 -5.15984E+03
 -1.78282E+04 -2.18417E+04 -2.89616E+03 -2.90567E+04  1.24081E+04 -2.43656E+04  2.38131E+04 -1.27994E+04
  2.30024E+04 -2.93843E+02  1.66759E+04  6.44013E+03  9.40065E+03  1.85061E+03  1.28656E+04 -1.96013E+03
  2.28762E+04  2.73507E+03  2.61609E+04  1.83192E+04  1.83787E+04  3.86768E+04 -2.68860E+03  4.51813E+04
 -2.54356E+04  3.79596E+04 -4.24618E+04  1.93232E+04 -4.59419E+04 -4.37971E+03 -3.76605E+04 -2.67304E+04
 -1.48744E+04 -3.90413E+04  1.35988E+04 -3.30792E+04  2.89521E+04 -1.58808E+04  2.46311E+04  8.73246E+03
  8.06359E+03  1.77437E+04 -1.22202E+04  1.61787E+04 -2.04668E+04  3.44932E+03 -1.52295E+04 -1.33940E+04
  1.35457E+02 -1.91302E+04  1.12770E+04 -1.41772E+04  1.31636E+04 -3.78785E+02  3.00371E+03  8.29965E+03
 -9.57652E+03  4.52894E+03 -9.42331E+03 -6.33383E+03 -2.15334E+03 -1.89228E+04  1.17147E+04 -2.00117E+04
  2.30292E+04 -1.20269E+04  2.64926E+04  4.44394E+03  2.35795E+04  1.89460E+04  1.08966E+04  3.02872E+04
 -5.42465E+03  3.24290E+04 -2.17883E+04  1.96131E+04 -2.40131E+04  4.87745E+03 -1.58604E+04 -6.17090E+03
 -6.83472E+03 -6.98898E+03 -8.82739E+02 -8.78832E+02 -2.43190E+03  3.23848E+03 -7.29236E+03  4.76778E+03
 -1.51910E+04 -6.66586E+02 -1.52941E+04 -1.24185E+04 -6.53513E+03 -2.05820E+04  5.99494E+03 -1.58614E+04
  1.26806E+04 -6.22432E+03  9.39765E+03  4.50228E+03 -9.26844E+02  6.49341E+03 -8.67462E+03 -9.67052E+01
 -7.93941E+03 -1.01798E+04 -1.08338E+03 -1.61459E+04  8.80046E+03 -1.67925E+04  1.99142E+04 -8.79955E+03
  2.39571E+04  2.58252E+03  1.83557E+04  1.46705E+04  2.74078E+03  1.98949E+04 -1.00389E+04  1.59896E+04
 -1.21736E+04  5.18414E+03 -6.54349E+03 -3.80061E+03  1.50756E+03 -4.67600E+03  8.47022E+03 -8.14960E+02
  7.81403E+03  7.56707E+03  1.50701E+03  1.29728E+04 -9.62983E+03  1.35888E+04 -1.56558E+04  3.18206E+03
 -1.01145E+04 -8.49256E+03  5.07946E+02 -1.39127E+04  8.86235E+03 -7.27514E+03  1.02203E+04  3.25074E+03
  2.39268E+03  1.10026E+04 -9.48219E+03  1.18477E+04 -1.44755E+04  4.89641E+03 -1.47042E+04 -5.53485E+03
 -8.78311E+03 -1.67916E+04  4.10773E+03 -1.86946E+04  1.60251E+04 -1.10223E+04  1.71724E+04  3.04098E+03
  9.97169E+03  1.39052E+04 -1.30421E+03  1.68212E+04 -1.19467E+04  9.39988E+03 -1.27982E+04 -1.69259E+03
 -1.12541E+04 -1.04521E+04 -1.81163E+03 -1.21268E+04  6.79300E+03 -9.79097E+03  8.00371E+03 -3.85181E+03
  4.36550E+03  1.71629E+03 -7.74338E+02  2.26711E+03 -8.72714E+01 -4.86530E+03  3.04491E+03 -8.60853E+03
  1.28360E+04 -4.78244E+03  1.66884E+04  1.34410E+03  1.69635E+04  1.15863E+04  1.09720E+04  2.20642E+04
 -5.82484E+03  2.57310E+04 -2.02595E+04  1.79035E+04 -2.66133E+04  2.98553E+03 -2.18453E+04 -1.00055E+04
 -1.07520E+04 -1.67290E+04 -1.26812E+03 -1.47476E+04  6.04165E+03 -9.06751E+03  5.80658E+03 -5.81658E+03
  4.05891E+03 -3.50665E+03  4.62007E+03 -3.69597E+03  5.85899E+03 -3.64682E+03  9.40616E+03 -1.03709E+03
  1.00935E+04  1.29299E+03  5.72649E+03  1.02210E+04 -2.47877E+03  1.09725E+04 -1.16648E+04  8.69882E+03
 -1.60409E+04 -1.90772E+03 -1.09208E+04 -1.06478E+04 -7.46755E+02 -1.61567E+04  8.62090E+03 -1.66566E+04
  1.77967E+04 -8.01389E+03  1.96750E+04  2.84136E+03  1.29536E+04  1.39057E+04  2.60340E+03  1.78999E+04
 -7.50345E+03  1.46895E+04 -1.09912E+04  5.03635E+03 -6.78326E+03 -2.25706E+03 -3.46939E+03 -2.78454E+03
 -6.91220E+02  2.80744E+02 -2.78214E+03  3.14577E+03 -6.35837E+03  2.86594E+03 -1.04896E+04 -5.39818E+02
 -6.57750E+03 -1.07091E+04  6.62892E+02 -1.63567E+04  9.18585E+03 -1.44122E+04  1.58736E+04 -4.91139E+03
  1.52783E+04  7.49574E+03  6.80825E+03  1.39477E+04 -2.99536E+03  1.58713E+04 -1.14523E+04  1.04519E+04
 -1.50463E+04  3.39901E+02 -1.04651E+04 -9.63257E+03 -1.54489E+03 -1.25704E+04  6.54484E+03 -9.41503E+03
  8.75926E+03 -2.82722E+03  6.54119E+03  1.70714E+03  2.49585E+03  3.82698E+03  1.87104E+03  2.19653E+03
  3.48404E+03  1.05263E+03  4.55490E+03  1.94385E+03  4.49506E+03  5.53744E+03  3.85506E+03  8.49904E+03
 -2.44693E+03  1.22938E+04 -1.17928E+04  1.24974E+04 -1.62101E+04  2.75329E+03 -1.64212E+04 -6.97708E+03
 -7.70379E+03 -1.59443E+04  2.87655E+03 -1.72341E+04  1.02920E+04 -1.08535E+04  1.28865E+04 -2.48825E+03
  1.04474E+04  6.33006E+03  2.14348E+03  9.12776E+03 -4.17129E+03  5.59491E+03 -6.51920E+03 -1.10505E+03
 -3.06270E+03 -6.43138E+03  2.77997E+03 -7.21254E+03  6.89652E+03 -3.51559E+03  6.07392E+03  1.59148E+03
  3.78632E+03  3.64218E+03  7.89977E+02  2.31870E+03 -4.12863E+02  2.10630E+03  2.22169E+03 -1.08233E+03
  2.66949E+03 -3.63853E+02  5.95219E+03  3.11830E+03  3.44443E+03  7.62951E+03 -1.22563E+03  1.10165E+04
 -8.33549E+03  6.58230E+03 -1.02302E+04  2.11259E+03 -8.53567E+03 -2.92352E+03 -3.88837E+03 -6.82384E+03
  6.75205E+02 -6.37451E+03  4.75295E+03 -3.24449E+03  3.80023E+03  3.04531E+03 -2.66082E+03  5.13963E+03
 -6.53997E+03  3.25196E+03 -7.43796E+03 -3.77318E+03 -3.63065E+03 -8.68768E+03  1.61127E+03 -9.31971E+03
  4.94961E+03 -5.36658E+03  6.39623E+03 -4.99847E+02  4.74925E+03  2.30058E+03  5.48662E+02  5.37366E+03
 -3.98992E+03  1.55342E+03 -3.83538E+03 -2.56473E+03  8.47266E+02 -7.06032E+03  7.63912E+03 -4.90875E+03
  1.00431E+04  4.10608E+02  9.42949E+03  6.54031E+03  3.27716E+03  1.01962E+04 -3.88482E+03  9.96432E+03
 -8.82379E+03  3.73164E+03 -8.69407E+03 -1.45914E+03 -4.25573E+03 -6.30132E+03  5.17122E+02 -5.40839E+03
  6.50323E+03 -2.73946E+03  6.16354E+03  2.94838E+03  1.60853E+03  4.88173E+03 -1.35867E+03  5.01835E+03
 -2.97764E+03  2.26917E+03 -2.09658E+03  1.37633E+03 -1.79482E+03  1.28027E+03 -1.78048E+03  1.91212E+03
 -3.73531E+03  4.09860E+03 -6.64502E+03  3.37430E+03 -1.09337E+04  4.62235E+02 -1.20050E+04 -6.75346E+03
 -5.98185E+03 -1.36193E+04  2.41507E+03 -1.55568E+04  9.92892E+03 -1.26064E+04  1.56519E+04 -4.79641E+03
  1.40755E+04  2.61131E+03  9.07017E+03  9.16382E+03  1.08320E+03  1.11813E+04 -4.15002E+03  8.18551E+03
 -7.06766E+03  2.06428E+03 -3.96182E+03 -1.01587E+03 -1.51482E+03 -7.76779E+02  9.64466E+01  4.47598E+02
 -2.29860E+03 -1.61710E+02 -1.50496E+03 -8.71614E+02 -1.31910E+03 -2.35450E+03  7.51842E+02 -3.65074E+03
  4.97621E+03 -3.05358E+03  6.07401E+03 -8.85409E+02  7.83267E+03  5.31336E+03  2.00433E+03  1.05643E+04
 -4.80611E+03  1.18307E+04 -1.19957E+04  8.62287E+03 -1.28394E+04 -1.18654E+03 -9.64478E+03 -8.20362E+03
 -4.24051E+03 -1.09467E+04  3.57502E+03 -1.01348E+04  6.80138E+03 -6.08463E+03  7.34532E+03  3.22112E+02
  4.27519E+03  3.10715E+03 -4.01962E+02  3.74291E+03 -2.53306E+03  8.50324E+01 -4.78178E+01 -2.35992E+03
  3.51931E+03 -1.75984E+03  5.38280E+03  1.26821E+03  3.23662E+03  4.37913E+03  1.53651E+02  6.26501E+03
 -5.30384E+03  5.64509E+03 -7.82355E+03  3.94157E+02 -6.36674E+03 -5.90589E+03 -1.06364E+03 -8.67781E+03
  6.10080E+03 -7.05833E+03  9.08736E+03 -2.58942E+03  9.17016E+03  2.05122E+03  5.10627E+03  6.58969E+03
  1.00416E+03  8.21784E+03 -2.63987E+03  6.50895E+03 -4.25779E+03  4.42106E+03 -4.06169E+03 -2.54418E+02
 -1.73446E+03 -2.66708E+02 -2.12634E+03  1.23514E+03 -3.36952E+03  1.62636E+03 -4.99919E+03 -1.14942E+03
 -5.01826E+03 -4.75158E+03 -1.61119E+03 -6.32896E+03  3.47097E+03 -7.89013E+03  7.04923E+03 -3.50039E+03
  7.98477E+03  3.91490E+02  3.85295E+03  4.84195E+03  3.77160E+02  7.18710E+03 -5.03787E+03  5.24386E+03
