 $NMID ID='MM_0lb_SNR400_19hz_g45_46.RAW', FMTDAT='(8E13.5)'
 TRAMP=1., VOLUME=1. $END
  3.10115E+05  6.41406E+02  3.37724E+05  2.50629E+05  8.44043E+04  3.37656E+05 -1.32300E+05  2.49845E+05
 -1.90191E+05  8.22896E+04 -1.10876E+05 -3.24810E+04  1.87394E+03 -5.06353E+04  5.33444E+04  2.18459E+01
  3.46583E+04  5.30627E+04 -1.61636E+04  7.54992E+04 -6.00206E+04  6.26421E+04 -8.25516E+04  3.18817E+04
 -7.94293E+04 -1.10590E+04 -5.65448E+04 -5.01110E+04 -1.45948E+04 -6.78631E+04  2.63120E+04 -4.43573E+04
  3.89795E+04  4.58893E+03  1.53305E+04  4.72754E+04 -3.36845E+04  4.68866E+04 -6.51430E+04 -3.50344E+02
 -5.14048E+04 -5.62397E+04 -6.53931E+03 -7.48145E+04  3.32451E+04 -5.34068E+04  4.56796E+04 -1.59616E+04
  4.11864E+04  1.06008E+04  3.06339E+04  2.42522E+04  1.63681E+04  2.87278E+04 -5.05740E+03  2.68737E+04
 -2.12874E+04  1.30732E+04 -1.90835E+04 -4.23584E+03  4.11823E+03 -7.77723E+03  2.10996E+04  1.03247E+04
  7.23295E+03  3.28767E+04 -3.00932E+04  3.34832E+04 -6.04294E+04  2.49172E+03 -5.53381E+04 -4.13193E+04
 -1.21591E+04 -6.00236E+04  3.80100E+04 -4.32530E+04  5.47927E+04 -1.67732E+03  3.10569E+04  2.98465E+04
 -6.56444E+03  3.26069E+04 -2.77693E+04  1.24345E+04 -2.66710E+04 -5.66719E+03 -1.40069E+04 -1.00731E+04
 -6.92567E+03 -1.13565E+04 -1.41201E+03 -1.66115E+04  7.22647E+03 -2.27365E+04  1.50953E+04 -1.36052E+04
  1.24936E+04  4.35870E+03 -6.31388E+03  1.31293E+04 -1.92899E+04 -1.90308E+03 -7.53446E+03 -2.96372E+04
  2.04629E+04 -4.05098E+04  4.39874E+04 -1.88832E+04  4.12775E+04  1.81914E+04  1.37065E+04  4.12529E+04
 -1.48379E+04  3.12826E+04 -2.34620E+04  9.01311E+02 -7.96115E+03 -2.63774E+04  2.04161E+04 -3.13218E+04
  3.77881E+04 -7.12061E+03  3.04769E+04  2.25700E+04  1.52624E+04  4.18622E+04 -7.03522E+03  4.44738E+04
 -2.77161E+04  2.92473E+04 -3.68436E+04  7.88736E+03 -3.76615E+04 -1.45086E+04 -2.07155E+04 -3.35560E+04
  6.97621E+03 -3.35831E+04  2.88464E+04 -1.26090E+04  2.69764E+04  1.11035E+04  2.66886E+03  1.77148E+04
 -1.28438E+04  7.15068E+03 -9.71804E+03 -7.49790E+03  6.53249E+03 -9.90896E+03  1.75205E+04  6.36092E+03
  1.24664E+04  2.13709E+04 -6.30605E+03  2.32950E+04 -2.10179E+04  8.70996E+03 -2.46898E+04 -5.88159E+03
 -1.61894E+04 -1.62211E+04 -5.17773E+03 -1.65596E+04  3.64765E+03 -1.37955E+04  1.24317E+04 -1.37410E+04
  2.10722E+04 -1.13028E+04  2.73375E+04  8.67067E+02  2.09357E+04  1.59004E+04  4.25716E+03  3.20044E+04
 -1.53166E+04  2.74712E+04 -2.60972E+04  8.87013E+03 -1.89863E+04 -1.02785E+04 -3.81247E+03 -1.36054E+04
  2.87569E+03 -4.69963E+03 -2.63157E+03  5.07380E+03 -1.25054E+04  5.22619E+03 -1.27645E+04 -4.37480E+03
 -8.18104E+03 -1.52232E+04  4.02693E+03 -1.85057E+04  1.19426E+04 -1.40187E+04  1.43314E+04 -1.28660E+03
  8.29282E+03  1.03627E+04 -9.43933E+02  1.54980E+04 -9.85426E+03  8.27535E+03 -1.48602E+04 -3.09524E+03
 -1.10666E+04 -1.36899E+04 -1.60096E+03 -1.79536E+04  8.48639E+03 -1.51473E+04  1.57796E+04 -6.55981E+03
  1.43373E+04  1.88549E+02  9.83051E+03  3.71147E+03  4.98147E+03  3.73850E+02  7.37012E+03 -1.73037E+03
  1.34035E+04  2.31118E+03  1.39945E+04  1.25725E+04  9.01451E+03  2.39894E+04 -2.90359E+03  2.53186E+04
 -1.52040E+04  1.93867E+04 -2.34519E+04  8.81375E+03 -2.38304E+04 -2.21092E+03 -2.05815E+04 -1.30977E+04
 -1.02590E+04 -1.95560E+04  5.94540E+03 -1.85564E+04  1.58670E+04 -1.13000E+04  1.51932E+04  3.41214E+03
  6.31425E+03  1.04662E+04 -6.97463E+03  1.03670E+04 -1.30457E+04  2.09921E+03 -9.74349E+03 -8.20827E+03
 -4.44822E+02 -1.18588E+04  6.25675E+03 -9.51353E+03  7.60036E+03 -1.69127E+03  6.39655E+02  4.62495E+03
 -5.34775E+03  1.22098E+03 -3.02420E+03 -4.34698E+03  8.04542E+02 -9.96686E+03  7.70903E+03 -9.72927E+03
  1.12617E+04 -4.66069E+03  1.06660E+04  2.62134E+03  9.47857E+03  9.22002E+03  4.91588E+03  1.27120E+04
 -1.62966E+03  1.48299E+04 -9.18107E+03  9.80256E+03 -1.05891E+04  3.08188E+03 -8.13499E+03 -1.66782E+03
 -5.08392E+03 -3.09495E+03 -6.68681E+02  1.30158E+03 -1.96527E+03  1.35479E+03 -3.03929E+03  4.18777E+03
 -7.20108E+03 -9.62044E+02 -8.85178E+03 -6.51332E+03 -3.26928E+03 -1.06497E+04  3.48542E+03 -7.94199E+03
  6.23291E+03 -3.83066E+03  4.91364E+03  2.22407E+03  1.14927E+03  3.19075E+03 -3.11975E+03  1.38773E+02
 -2.87458E+03 -5.12141E+03 -9.50353E+02 -6.69324E+03  3.59390E+03 -7.50221E+03  9.52840E+03 -3.66885E+03
  1.09555E+04  4.11571E+02  7.84747E+03  5.85435E+03  1.31484E+03  8.02948E+03 -4.75550E+03  7.90090E+03
 -6.76639E+03  3.26835E+03 -3.00804E+03 -1.21318E+03  1.50278E+03 -2.07871E+03  4.69865E+03 -8.81273E+02
  3.60936E+03  2.89588E+03  7.40301E+02  5.85093E+03 -4.67664E+03  6.12969E+03 -6.87776E+03  1.85333E+03
 -4.58502E+03 -3.26424E+03  3.11370E+02 -5.93209E+03  3.32852E+03 -2.98548E+03  3.70930E+03  8.06795E+02
  5.29360E+02  3.14487E+03 -3.63115E+03  4.62834E+03 -4.47145E+03  1.58145E+03 -4.25751E+03 -9.59203E+02
 -3.29361E+03 -5.52497E+03  9.87589E+02 -6.80337E+03  5.34197E+03 -4.14845E+03  5.79852E+03  1.48419E+03
  3.95702E+03  5.13741E+03 -1.63227E+02  6.96369E+03 -4.57959E+03  3.86504E+03 -5.00234E+03  1.60134E+02
 -5.24927E+03 -4.83042E+03 -1.01178E+03 -5.35545E+03  2.37233E+03 -4.56751E+03  2.86274E+03 -3.30843E+03
  2.85423E+03 -2.83556E+02  1.71569E+02  1.13377E+03  5.56889E+02 -1.41973E+02  6.20580E+01 -1.45335E+03
  3.32969E+03 -4.70548E+02  4.73688E+03  4.90912E+02  5.14418E+03  2.33305E+03  4.95030E+03  6.12536E+03
 -1.31826E+03  7.77434E+03 -7.40319E+03  6.12366E+03 -9.51653E+03  1.44786E+03 -7.60926E+03 -2.45874E+03
 -3.53091E+03 -6.05164E+03 -9.96438E+02 -4.67044E+03  1.91357E+03 -2.60358E+03  1.17990E+03 -1.85658E+03
  6.88435E+02 -1.62523E+03  2.38282E+03 -2.20052E+03  3.48742E+03 -1.24097E+03  3.31415E+03  5.13870E+02
  4.19408E+03  8.95216E+02  7.24045E+02  3.23632E+03 -1.70739E+03  2.70031E+03 -4.57518E+03  2.61580E+03
 -4.58164E+03 -1.35100E+03 -1.39499E+03 -2.58302E+03  5.73219E+02 -4.58871E+03  2.94421E+03 -5.16905E+03
  4.58710E+03 -3.05047E+03  6.04719E+03 -3.18269E+02  4.59000E+03  3.55179E+03  4.79842E+02  5.21954E+03
 -1.71608E+03  5.78617E+03 -2.92863E+03  1.83157E+03 -1.69624E+03 -6.67712E+02 -5.68960E+02 -2.97988E+02
 -4.13442E+02  5.30580E+02 -1.05897E+03  1.74640E+03 -2.39590E+03  1.04541E+03 -3.99140E+03 -1.56014E+02
 -1.44593E+03 -4.07149E+03  1.50088E+03 -4.07488E+03  2.43296E+03 -4.28667E+03  2.80243E+03 -7.34920E+02
  3.80660E+03  2.38090E+03  1.59169E+03  2.65523E+03 -1.71206E+02  3.86416E+03 -2.56541E+03  2.69568E+03
 -3.27105E+03  3.63212E+02 -3.05963E+03 -2.45091E+03  5.46164E+01 -3.15094E+03  1.49986E+03 -2.15692E+03
  2.65916E+03 -1.54142E+03  1.47682E+03  3.31483E+02  4.07203E+02  9.94011E+02  1.06025E+03  3.45250E+02
  1.23589E+03  4.97906E+02  1.37583E+03  6.44181E+02  1.04467E+03  2.23959E+03  1.26012E+03  1.93777E+03
 -1.37003E+03  2.93372E+03 -2.09993E+03  3.58720E+03 -2.69642E+03  1.06546E+03 -3.73830E+03  8.85881E+00
 -1.42970E+03 -3.13706E+03  7.21705E+02 -4.25280E+03  1.72030E+03 -2.59127E+03  2.59484E+03 -9.01424E+02
  2.01946E+03  1.64263E+03  1.66042E+02  1.92477E+03 -7.30505E+02  8.23736E+02 -1.08122E+03 -1.67852E+02
 -5.47619E+02 -1.56344E+03  1.05950E+03 -1.66778E+03  7.78994E+02 -9.72949E+02  1.21496E+03 -4.76120E+02
  1.11464E+03 -3.28187E+01  5.54041E+02  3.42415E+02 -3.64473E+02  4.50624E+02  1.67440E+03  4.45371E+01
  1.04438E+02 -2.04554E+02  1.57755E+03  4.85869E+02  3.34887E+02  2.17022E+03 -2.09472E+02  3.00877E+03
 -1.34291E+03  9.64631E+02 -1.94975E+03  2.49031E+02 -1.96294E+03 -5.80578E+02 -3.91394E+01 -1.06029E+03
  8.87017E+02 -1.06699E+03  1.10806E+03 -9.67143E+02  1.07417E+03  1.57538E+03 -8.90398E+02  7.60107E+02
 -1.39488E+03  5.45767E+02 -5.64165E+02 -1.82791E+03 -1.11211E+02 -2.14263E+03  2.16495E+02 -1.04619E+03
  3.07480E+02 -3.37624E+02  5.70272E+02  4.78371E+02  9.94246E+02  1.41689E+01  4.54531E+02  1.12826E+03
 -3.38833E+02  7.26185E+01 -9.80487E+02  1.69253E+02  7.25607E+02 -8.57217E+02  1.47883E+03 -4.30221E+02
  8.81456E+02  6.41424E+02  2.65984E+03  7.01687E+02  8.74510E+02  1.64622E+03  5.71853E+00  1.50261E+03
 -1.50536E+03 -2.50032E+02 -1.49805E+03 -8.45289E+01 -1.02999E+03 -1.30545E+03 -1.87209E+02 -5.15946E+02
  1.37185E+03 -5.29310E+02  4.63591E+02  2.27122E+02  1.22731E+02  1.60438E+03  3.22145E+02  1.30631E+03
  4.09187E+01  1.36915E+03 -9.75041E+02 -2.18616E+02 -2.74434E+01  3.30926E+02  1.56463E+01  4.39992E+02
 -3.92208E+02  9.85363E+02 -1.63113E+03  4.06238E+02 -1.26038E+03  1.50092E+02 -2.44217E+03 -1.29949E+03
 -8.37333E+02 -1.85267E+03  3.33575E+02 -2.48114E+03  1.24541E+03 -2.44460E+03  2.07287E+03 -1.00579E+03
  2.53850E+03 -2.33828E+02  1.13870E+03  1.27697E+03 -4.05568E+02  1.14096E+03 -7.27568E+02  8.53693E+02
 -4.81078E+02  1.28429E+03 -7.64106E+02 -2.56592E+02 -6.10641E+02  1.76569E+02 -5.06933E+02 -2.05377E+02
 -7.68059E+02 -3.17651E+02 -5.53683E+02  2.79190E+02  3.39726E+02 -3.73495E+02 -4.83330E+02 -9.82931E+02
  1.10550E+03 -3.00714E+02  3.91315E+02 -4.77864E+00  1.16194E+03  8.84990E+02 -1.19436E+03  1.26927E+03
 -9.36926E+02  1.75193E+03 -1.90221E+03  8.25201E+02 -1.86346E+03  4.86194E+01 -1.55110E+03 -1.46254E+03
 -9.34426E+02 -1.53995E+03  3.71256E+02 -1.62787E+03  3.26560E+02 -7.57980E+02  5.97024E+02  6.43299E+02
  7.44131E+02  1.42281E+02 -5.19893E+02 -4.21297E+01 -2.67957E+02  2.98748E+02 -1.43587E+02  1.71452E+02
  3.29966E+02  5.71362E+01  2.10219E+02  4.60752E+02  4.83334E+02  5.24385E+02  1.01427E+02  1.44744E+02
 -5.94989E+02  8.69686E+02 -4.46546E+02 -2.85977E+02 -6.56985E+02 -9.96235E+02  7.98547E+02 -5.87933E+02
  1.59832E+02 -4.55625E+02  2.43021E+02  4.94299E+02  9.32364E+02 -1.46661E+02  3.15866E+02  2.98961E+02
  2.98522E+02  6.04969E+02  1.13512E+02  9.69703E+02 -8.26764E+02  3.76179E+02  3.96902E+02  3.32246E+02
 -3.18863E+02  3.49287E+02 -5.51478E+02  4.67706E+02 -3.75564E+02  5.78225E+02 -7.83008E+02  3.66733E+02
 -1.00798E+03  9.67787E+02 -3.14093E+02 -8.71853E+02  5.03907E+02 -1.10030E+03  5.26640E+02 -4.38769E+02
  7.00538E+02  2.67390E+02 -2.09684E+02  2.20725E+02 -3.65602E+02  7.87389E+02 -3.49836E+02  3.43233E+02
