 $NMID ID='MM_0lb_SNR400_7hz_g60_30.RAW', FMTDAT='(8E13.5)'
 TRAMP=1., VOLUME=1. $END
  3.10123E+05 -1.49464E+02  3.38909E+05  2.51587E+05  8.53290E+04  3.37764E+05 -1.32904E+05  2.52328E+05
 -1.91060E+05  8.44871E+04 -1.13557E+05 -3.19581E+04  1.10149E+02 -5.07199E+04  5.28129E+04 -2.54249E+02
  3.56153E+04  5.20238E+04 -1.55066E+04  7.67640E+04 -6.27849E+04  6.38037E+04 -8.54999E+04  3.27987E+04
 -8.38111E+04 -1.17207E+04 -5.89471E+04 -5.23988E+04 -1.45935E+04 -7.19575E+04  2.87163E+04 -4.79127E+04
  4.24345E+04  4.16793E+03  1.68071E+04  4.92433E+04 -3.47463E+04  4.82809E+04 -6.95640E+04 -2.66496E+02
 -5.53497E+04 -5.83982E+04 -7.50057E+03 -8.04446E+04  3.48720E+04 -5.89200E+04  5.08262E+04 -1.92117E+04
  4.63079E+04  1.19443E+04  3.29580E+04  2.71639E+04  1.53589E+04  3.13169E+04 -6.42322E+03  2.79121E+04
 -2.34360E+04  1.14923E+04 -1.84020E+04 -6.60793E+03  7.51317E+03 -6.84779E+03  2.42537E+04  1.41320E+04
  6.87437E+03  3.95903E+04 -3.48721E+04  3.77156E+04 -6.74924E+04  2.45599E+03 -5.87554E+04 -4.56528E+04
 -1.25706E+04 -6.74813E+04  4.27796E+04 -4.91031E+04  6.27887E+04 -2.51971E+03  3.77588E+04  3.53848E+04
 -5.64539E+03  4.14732E+04 -3.33173E+04  2.06063E+04 -3.51859E+04 -2.45065E+03 -2.09494E+04 -1.23643E+04
 -1.00227E+04 -1.63637E+04 -4.17301E+02 -2.07062E+04  8.85682E+03 -2.47629E+04  1.57803E+04 -1.23630E+04
  9.53501E+03  7.16382E+03 -1.10881E+04  1.23320E+04 -2.54176E+04 -8.39913E+03 -8.50903E+03 -3.97810E+04
  2.74410E+04 -4.93859E+04  5.39197E+04 -2.09960E+04  5.11925E+04  2.17880E+04  1.70641E+04  4.87282E+04
 -1.66397E+04  3.75286E+04 -2.92619E+04  3.14945E+03 -1.24331E+04 -3.05397E+04  2.24001E+04 -3.85175E+04
  4.70677E+04 -1.20350E+04  4.28274E+04  2.52413E+04  2.32327E+04  5.48225E+04 -8.13658E+03  6.07256E+04
 -3.87505E+04  4.13065E+04 -5.10672E+04  1.15758E+04 -5.03326E+04 -2.02715E+04 -2.74498E+04 -4.44060E+04
  8.51706E+03 -4.35377E+04  3.72024E+04 -1.89092E+04  3.26978E+04  1.18987E+04  6.06542E+03  2.14752E+04
 -1.50533E+04  1.19660E+04 -1.15814E+04 -8.26424E+03  5.27916E+03 -1.16929E+04  1.93178E+04  4.91783E+03
  1.57452E+04  2.35633E+04 -4.57347E+03  2.80214E+04 -2.33741E+04  1.60127E+04 -3.34819E+04 -1.52654E+03
 -2.73861E+04 -1.88027E+04 -1.41336E+04 -2.71072E+04  5.35286E+03 -2.96542E+04  2.18846E+04 -2.58310E+04
  3.64709E+04 -1.43568E+04  4.19947E+04  5.96939E+03  2.85565E+04  2.76494E+04  4.79468E+03  4.53828E+04
 -2.15067E+04  3.64426E+04 -3.23528E+04  1.17892E+04 -2.26778E+04 -1.02577E+04 -4.64657E+03 -1.18210E+04
 -8.30195E+02 -6.69986E+02 -8.71108E+03  9.45905E+03 -2.24848E+04  4.88243E+03 -2.22961E+04 -9.78864E+03
 -1.26759E+04 -2.63391E+04  6.90632E+03 -3.10443E+04  2.08326E+04 -2.18427E+04  2.48641E+04 -2.03861E+03
  1.60870E+04  1.86236E+04 -1.71419E+03  2.62287E+04 -1.86687E+04  1.52145E+04 -2.69998E+04 -5.88058E+03
 -1.85785E+04 -2.25431E+04 -2.49458E+03 -3.14746E+04  1.37560E+04 -2.61789E+04  2.55605E+04 -1.46120E+04
  2.50082E+04 -1.40779E+02  1.83854E+04  5.18796E+03  1.08064E+04  1.74947E+03  1.47614E+04 -2.21360E+03
  2.61839E+04  2.68706E+03  2.92499E+04  1.98314E+04  2.05829E+04  4.23228E+04 -1.94453E+03  5.09685E+04
 -2.85489E+04  4.29430E+04 -4.90033E+04  2.18900E+04 -5.18185E+04 -4.62809E+03 -4.22016E+04 -2.99446E+04
 -1.66495E+04 -4.31849E+04  1.60917E+04 -3.76335E+04  3.25384E+04 -1.75783E+04  2.82372E+04  9.11201E+03
  9.75726E+03  2.15440E+04 -1.28522E+04  1.81060E+04 -2.29255E+04  1.97766E+03 -1.61394E+04 -1.48557E+04
 -2.23687E+02 -2.15858E+04  1.25055E+04 -1.60627E+04  1.54924E+04 -1.13697E+03  3.68109E+03  9.94182E+03
 -1.03946E+04  4.47832E+03 -1.12488E+04 -7.58692E+03 -2.68204E+03 -2.07136E+04  1.31362E+04 -2.35308E+04
  2.71875E+04 -1.37398E+04  3.13269E+04  3.57102E+03  2.90225E+04  2.19835E+04  1.31169E+04  3.57291E+04
 -7.69364E+03  3.61062E+04 -2.45527E+04  2.22460E+04 -2.67674E+04  4.24447E+03 -1.74800E+04 -7.87905E+03
 -8.07783E+03 -9.18385E+03 -1.47058E+03 -5.46898E+02 -2.78968E+03  4.15094E+03 -8.46034E+03  5.89716E+03
 -1.61871E+04 -1.12270E+03 -1.78517E+04 -1.34020E+04 -6.67997E+03 -2.30674E+04  6.50925E+03 -1.91568E+04
  1.53503E+04 -7.68352E+03  1.09083E+04  5.51895E+03 -6.54660E+02  7.37037E+03 -1.01647E+04  5.84769E+01
 -9.31339E+03 -1.16061E+04 -1.68106E+03 -1.87849E+04  1.16388E+04 -2.01623E+04  2.36450E+04 -1.07367E+04
  2.76018E+04  2.69224E+03  2.07722E+04  1.77019E+04  4.36249E+03  2.43180E+04 -1.24451E+04  1.83897E+04
 -1.50138E+04  4.65568E+03 -7.16986E+03 -4.73581E+03  2.51926E+03 -5.01158E+03  9.95424E+03 -9.90891E+02
  9.22067E+03  8.70727E+03  9.91008E+02  1.54970E+04 -1.05946E+04  1.44016E+04 -1.87866E+04  3.08337E+03
 -1.45273E+04 -1.02795E+04 -2.62114E+02 -1.67678E+04  1.04765E+04 -8.93016E+03  1.28378E+04  4.85933E+03
  2.50019E+03  1.31868E+04 -1.00279E+04  1.40610E+04 -1.72319E+04  5.95576E+03 -1.71325E+04 -7.19085E+03
 -9.87599E+03 -1.98149E+04  5.13844E+03 -2.31498E+04  1.91700E+04 -1.35363E+04  2.14893E+04  3.46350E+03
  1.20571E+04  1.72159E+04 -2.15571E+03  1.97467E+04 -1.43539E+04  1.04988E+04 -1.55829E+04 -1.93965E+03
 -1.28333E+04 -1.30278E+04 -1.20949E+03 -1.47856E+04  7.61661E+03 -1.09780E+04  9.37409E+03 -4.67014E+03
  5.41594E+03  2.86283E+03 -1.42477E+03  2.94316E+03 -9.36550E+02 -5.26261E+03  4.50781E+03 -1.08503E+04
  1.44349E+04 -6.21413E+03  2.12235E+04  2.76142E+03  1.98642E+04  1.44799E+04  1.19210E+04  2.70083E+04
 -6.69903E+03  3.00414E+04 -2.60995E+04  2.25876E+04 -3.32211E+04  3.68973E+03 -2.60552E+04 -1.32426E+04
 -1.25921E+04 -2.19361E+04 -6.66035E+02 -1.87718E+04  6.74726E+03 -1.02283E+04  5.80701E+03 -6.97600E+03
  4.53608E+03 -4.35436E+03  4.95211E+03 -4.25061E+03  6.77250E+03 -5.18238E+03  1.00183E+04 -1.79212E+03
  1.34119E+04  3.08263E+03  7.98310E+03  1.19881E+04 -1.93477E+03  1.52035E+04 -1.48041E+04  1.05018E+04
 -1.97155E+04 -1.54092E+03 -1.21447E+04 -1.26829E+04 -1.83284E+03 -1.97294E+04  1.12523E+04 -1.99798E+04
  2.19144E+04 -1.15285E+04  2.62385E+04  4.28010E+03  1.83332E+04  1.85585E+04  1.92100E+03  2.40933E+04
 -9.64954E+03  1.84961E+04 -1.37444E+04  6.22188E+03 -9.77882E+03 -2.69518E+03 -3.93956E+03 -3.20181E+03
 -2.75083E+03 -1.11467E+03 -2.79496E+03  3.02480E+03 -8.08307E+03  3.47086E+03 -1.39617E+04 -2.56001E+03
 -9.35043E+03 -1.25650E+04  2.54765E+02 -1.99099E+04  1.22990E+04 -1.87480E+04  2.11401E+04 -6.54905E+03
  1.96787E+04  1.00727E+04  8.70894E+03  1.86501E+04 -4.02370E+03  2.06304E+04 -1.45665E+04  1.29084E+04
 -1.95253E+04  1.97687E+02 -1.47631E+04 -1.11270E+04 -1.74169E+03 -1.71107E+04  8.46893E+03 -1.29924E+04
  1.24809E+04 -4.02053E+03  8.92415E+03  3.95362E+03  3.64725E+03  5.28860E+03  1.70013E+03  2.72459E+03
  3.63793E+03  1.02078E+03  5.27521E+03  2.39436E+03  6.64494E+03  6.42011E+03  4.80174E+03  1.09051E+04
 -4.22520E+03  1.62505E+04 -1.38923E+04  1.51493E+04 -2.14849E+04  3.21889E+03 -2.18233E+04 -1.03670E+04
 -1.04718E+04 -2.16541E+04  2.62416E+03 -2.24877E+04  1.20794E+04 -1.52652E+04  1.69779E+04 -3.80440E+03
  1.35405E+04  7.11630E+03  2.72755E+03  1.26745E+04 -5.37962E+03  8.28382E+03 -9.42234E+03 -1.26355E+03
 -3.58277E+03 -9.47065E+03  4.75677E+03 -8.85248E+03  9.03327E+03 -4.93670E+03  9.14380E+03  1.91067E+03
  4.60778E+03  5.03772E+03  2.03470E+03  3.15268E+03 -6.33504E+02  2.15548E+03  2.56733E+03 -7.39006E+02
  3.70444E+03 -1.61039E+02  9.33998E+03  2.29012E+03  4.93091E+03  1.11354E+04 -9.69138E+02  1.54303E+04
 -1.02522E+04  9.92420E+03 -1.36665E+04  2.71006E+03 -1.22982E+04 -4.60358E+03 -4.49222E+03 -8.69015E+03
  1.37987E+03 -8.72679E+03  5.64904E+03 -4.18713E+03  4.63549E+03  4.63164E+03 -2.26879E+03  6.54760E+03
 -9.11032E+03  3.00818E+03 -1.09743E+04 -5.82996E+03 -5.40023E+03 -1.18261E+04  1.82232E+03 -1.22882E+04
  8.24239E+03 -7.07516E+03  8.69265E+03 -1.67603E+03  7.44196E+03  3.40203E+03  1.18494E+03  7.28706E+03
 -4.15217E+03  2.80870E+03 -5.18555E+03 -5.56142E+03  2.39746E+03 -1.05254E+04  1.11594E+04 -7.28631E+03
  1.34563E+04  1.15946E+03  1.34454E+04  1.02778E+04  3.12745E+03  1.39910E+04 -5.36582E+03  1.38431E+04
 -1.17126E+04  6.80268E+03 -1.21398E+04 -2.16197E+03 -6.99239E+03 -9.34657E+03  2.14557E+03 -9.12035E+03
  8.36595E+03 -3.49222E+03  7.27816E+03  4.49343E+03  2.74466E+03  7.81600E+03 -2.18416E+03  7.17795E+03
 -4.83770E+03  4.18936E+03 -3.39098E+03  9.11517E+02 -1.27803E+03  8.07635E+02 -2.12277E+03  3.46697E+03
 -3.34333E+03  5.86005E+03 -9.65619E+03  4.31742E+03 -1.43877E+04  6.70643E+02 -1.62850E+04 -1.02845E+04
 -8.88529E+03 -1.99821E+04  3.99773E+03 -2.24957E+04  1.44604E+04 -1.73373E+04  2.21371E+04 -6.05667E+03
  2.04517E+04  3.96404E+03  1.35733E+04  1.49730E+04  1.28905E+03  1.54112E+04 -6.43478E+03  1.20492E+04
 -9.13681E+03  4.86449E+03 -4.34311E+03 -2.53890E+03 -1.34827E+03 -1.17087E+03 -7.22774E+02 -6.87869E+02
 -1.01245E+03 -2.05532E+02 -2.92343E+03 -1.15684E+03 -1.19077E+03 -4.10783E+03  1.10221E+03 -5.73547E+03
  6.94424E+03 -4.46052E+03  9.89084E+03  1.75534E+01  1.08955E+04  8.96303E+03  2.65940E+03  1.50587E+04
 -7.20974E+03  1.80706E+04 -1.74536E+04  1.07549E+04 -1.92582E+04 -1.70140E+03 -1.33897E+04 -1.18888E+04
 -5.43739E+03 -1.65831E+04  4.59090E+03 -1.57806E+04  1.09726E+04 -7.73606E+03  1.13775E+04  7.12450E+02
  5.45129E+03  5.59266E+03 -7.43695E+02  4.89533E+03 -2.60001E+03 -8.09330E+01 -8.51726E+02 -3.35204E+03
  4.46626E+03 -2.85019E+03  6.42931E+03  1.33055E+03  4.79996E+03  6.76384E+03  7.36737E+01  7.92083E+03
 -7.46836E+03  9.01718E+03 -1.12419E+04  1.08223E+03 -1.04295E+04 -8.21277E+03 -1.60423E+03 -1.43181E+04
  7.69540E+03 -1.06945E+04  1.36233E+04 -3.54537E+03  1.28256E+04  4.01479E+03  7.34787E+03  1.02206E+04
  8.34316E+02  1.13044E+04 -4.52359E+03  8.33474E+03 -7.06150E+03  5.01755E+03 -4.70375E+03  1.29366E+03
 -3.82845E+03 -1.03851E+02 -2.82639E+03  1.91916E+03 -5.97337E+03  2.10597E+03 -8.35856E+03 -1.82766E+03
 -7.52334E+03 -6.11386E+03 -2.90491E+03 -1.10773E+04  4.58322E+03 -1.21350E+04  9.71007E+03 -5.36092E+03
  1.00021E+04  5.45763E+02  7.10740E+03  9.51618E+03 -8.15942E+02  1.17905E+04 -8.83417E+03  7.42483E+03
