 $NMID ID='MM_0lb_SNR400_7hz_g40_6.RAW', FMTDAT='(8E13.5)'
 TRAMP=1., VOLUME=1. $END
  3.09719E+05 -9.33997E+01  3.37617E+05  2.51061E+05  8.39607E+04  3.38912E+05 -1.32724E+05  2.52153E+05
 -1.90539E+05  8.31342E+04 -1.12507E+05 -3.31085E+04  3.38984E+02 -5.07990E+04  5.37449E+04 -2.95753E+02
  3.56539E+04  5.24166E+04 -1.76568E+04  7.57230E+04 -6.08659E+04  6.42202E+04 -8.57540E+04  3.21685E+04
 -8.26601E+04 -1.10344E+04 -5.76749E+04 -5.28785E+04 -1.54921E+04 -7.17457E+04  2.85867E+04 -4.74405E+04
  4.10705E+04  3.67116E+03  1.69876E+04  4.86111E+04 -3.54394E+04  4.82895E+04 -6.88414E+04  6.72154E+02
 -5.53924E+04 -5.86387E+04 -7.67221E+03 -7.93114E+04  3.53443E+04 -5.70017E+04  5.06561E+04 -1.90913E+04
  4.58843E+04  1.05546E+04  3.32634E+04  2.57346E+04  1.60437E+04  3.10786E+04 -6.35977E+03  2.82545E+04
 -2.32847E+04  1.17208E+04 -1.81943E+04 -5.20057E+03  7.58149E+03 -8.27983E+03  2.42599E+04  1.38237E+04
  6.81906E+03  3.82286E+04 -3.45560E+04  3.72605E+04 -6.57559E+04  2.24927E+03 -5.92461E+04 -4.50347E+04
 -1.29655E+04 -6.61861E+04  4.12945E+04 -4.80877E+04  6.26993E+04 -2.24783E+03  3.76345E+04  3.49613E+04
 -4.70670E+03  4.10387E+04 -3.24153E+04  1.87486E+04 -3.36042E+04 -3.54271E+03 -1.97720E+04 -1.19647E+04
 -9.01990E+03 -1.58563E+04 -7.32708E+02 -1.98815E+04  9.60152E+03 -2.36932E+04  1.69244E+04 -1.25203E+04
  1.03851E+04  7.02932E+03 -1.04508E+04  1.25082E+04 -2.41470E+04 -6.79869E+03 -8.64944E+03 -3.80948E+04
  2.58514E+04 -4.86530E+04  5.27308E+04 -2.09690E+04  4.95145E+04  2.04641E+04  1.80377E+04  4.81823E+04
 -1.69594E+04  3.65182E+04 -2.79020E+04  1.68717E+03 -1.27840E+04 -2.96470E+04  2.18967E+04 -3.69240E+04
  4.48347E+04 -1.03971E+04  4.14247E+04  2.51304E+04  2.15967E+04  5.14255E+04 -8.62800E+03  5.78071E+04
 -3.61086E+04  3.99268E+04 -4.92768E+04  1.06564E+04 -4.82806E+04 -1.85934E+04 -2.74019E+04 -4.23634E+04
  7.33871E+03 -4.35835E+04  3.50786E+04 -1.79117E+04  3.25614E+04  1.13147E+04  5.70986E+03  2.10260E+04
 -1.29243E+04  1.05439E+04 -1.03820E+04 -7.00484E+03  4.93292E+03 -1.22171E+04  1.89301E+04  5.53321E+03
  1.54105E+04  2.26507E+04 -4.85830E+03  2.79731E+04 -2.42149E+04  1.50631E+04 -3.12926E+04 -3.21714E+03
 -2.62611E+04 -1.96058E+04 -1.27775E+04 -2.54420E+04  4.83944E+03 -2.68982E+04  2.12384E+04 -2.45267E+04
  3.39623E+04 -1.51587E+04  3.99650E+04  5.38657E+03  2.76977E+04  2.53782E+04  4.96105E+03  4.31077E+04
 -2.02020E+04  3.54132E+04 -3.11007E+04  1.18631E+04 -2.22413E+04 -1.06438E+04 -5.00136E+03 -1.32103E+04
  6.47857E+02 -6.65663E+02 -8.67070E+03  8.53278E+03 -2.10098E+04  4.89854E+03 -2.07122E+04 -1.01038E+04
 -1.16777E+04 -2.39951E+04  6.69712E+03 -2.84545E+04  1.84781E+04 -2.03166E+04  2.37458E+04 -2.35152E+03
  1.52593E+04  1.65145E+04 -1.38671E+03  2.41978E+04 -1.76020E+04  1.43224E+04 -2.49896E+04 -5.84012E+03
 -1.86497E+04 -2.23937E+04 -2.24691E+03 -2.95242E+04  1.31488E+04 -2.53101E+04  2.44149E+04 -1.21886E+04
  2.32546E+04 -1.01262E+03  1.64293E+04  6.05724E+03  1.00595E+04  5.91741E+02  1.26175E+04 -1.46264E+03
  2.31578E+04  3.56122E+03  2.71960E+04  1.98605E+04  1.92215E+04  4.04593E+04 -1.87897E+03  4.73300E+04
 -2.71011E+04  3.92596E+04 -4.50745E+04  2.09454E+04 -4.75288E+04 -2.92105E+03 -3.86410E+04 -2.84139E+04
 -1.59318E+04 -3.97115E+04  1.40372E+04 -3.42446E+04  3.00756E+04 -1.52508E+04  2.54046E+04  8.38843E+03
  8.46267E+03  2.06012E+04 -1.20899E+04  1.60975E+04 -2.16900E+04  2.53213E+03 -1.65090E+04 -1.27038E+04
  1.97809E+02 -2.11087E+04  1.11245E+04 -1.53675E+04  1.40509E+04 -9.22650E+02  3.93684E+03  9.12232E+03
 -8.80174E+03  4.65077E+03 -9.92322E+03 -7.74325E+03 -3.01036E+03 -1.98789E+04  1.15656E+04 -2.22047E+04
  2.54241E+04 -1.18455E+04  2.86134E+04  3.04329E+03  2.52740E+04  1.94888E+04  1.23203E+04  3.13459E+04
 -5.96020E+03  3.46742E+04 -2.20027E+04  1.98594E+04 -2.44728E+04  3.84238E+03 -1.67608E+04 -6.96349E+03
 -6.49874E+03 -8.27884E+03 -1.13499E+03  1.83803E+02 -3.69625E+03  3.15304E+03 -8.52707E+03  5.25491E+03
 -1.51382E+04 -9.14562E+02 -1.66994E+04 -1.28156E+04 -7.41620E+03 -2.05249E+04  7.17579E+03 -1.70521E+04
  1.31909E+04 -7.39866E+03  9.62789E+03  4.46011E+03 -4.04797E+02  5.80862E+03 -8.57136E+03  1.28928E+03
 -8.16987E+03 -1.11540E+04 -1.33748E+03 -1.74868E+04  9.87323E+03 -1.81721E+04  2.13850E+04 -9.96891E+03
  2.58028E+04  2.88634E+03  1.89512E+04  1.68145E+04  3.55628E+03  2.13200E+04 -9.67282E+03  1.73393E+04
 -1.37615E+04  5.13106E+03 -6.61342E+03 -4.44949E+03  1.97493E+03 -5.10586E+03  9.61170E+03 -1.18113E+03
  7.87500E+03  8.06987E+03  1.72601E+03  1.41676E+04 -1.07432E+04  1.34533E+04 -1.73239E+04  2.26563E+03
 -1.22124E+04 -7.79404E+03 -1.18806E+02 -1.49085E+04  9.67116E+03 -7.85794E+03  1.07467E+04  4.03020E+03
  2.27468E+03  1.15552E+04 -1.02505E+04  1.29263E+04 -1.45759E+04  5.32556E+03 -1.60538E+04 -5.81662E+03
 -1.01965E+04 -1.89771E+04  4.58242E+03 -2.04591E+04  1.81530E+04 -1.22597E+04  1.95514E+04  3.66694E+03
  1.16321E+04  1.48906E+04 -2.11582E+03  1.74541E+04 -1.34838E+04  1.05069E+04 -1.43291E+04 -1.58691E+03
 -1.14923E+04 -1.15004E+04 -1.72762E+03 -1.38515E+04  7.34005E+03 -1.12610E+04  8.40579E+03 -4.36264E+03
  5.00791E+03  2.68655E+03 -1.25982E+03  2.80675E+03 -1.61219E+03 -4.24894E+03  2.67238E+03 -8.98087E+03
  1.36695E+04 -5.97211E+03  1.83844E+04  2.47824E+03  1.91397E+04  1.29807E+04  1.11804E+04  2.43150E+04
 -5.39197E+03  2.64742E+04 -2.20277E+04  1.93465E+04 -3.00956E+04  3.14243E+03 -2.30180E+04 -1.12161E+04
 -1.16123E+04 -1.96096E+04 -3.25973E+02 -1.66358E+04  6.59617E+03 -9.32737E+03  6.18890E+03 -6.17501E+03
  4.19555E+03 -4.36622E+03  4.36527E+03 -4.03712E+03  6.64289E+03 -3.33747E+03  8.44969E+03 -2.01931E+03
  1.19200E+04  3.27214E+03  7.20115E+03  1.04634E+04 -1.38753E+03  1.36508E+04 -1.27484E+04  9.54580E+03
 -1.69723E+04 -1.02891E+03 -9.98906E+03 -1.20600E+04 -1.99922E+03 -1.79343E+04  9.43958E+03 -1.85125E+04
  1.95725E+04 -8.78196E+03  2.32248E+04  2.63889E+03  1.52073E+04  1.65784E+04  1.92907E+03  2.02635E+04
 -8.93450E+03  1.66273E+04 -1.28930E+04  5.62591E+03 -7.86312E+03 -2.31248E+03 -3.35255E+03 -3.51993E+03
 -2.56538E+03 -1.04067E+03 -3.06057E+03  3.60015E+03 -7.14551E+03  2.72763E+03 -1.23934E+04 -1.25801E+03
 -8.46198E+03 -1.23013E+04 -6.88061E+02 -1.71582E+04  1.03785E+04 -1.60648E+04  1.76770E+04 -4.76574E+03
  1.76008E+04  7.97592E+03  8.34283E+03  1.47877E+04 -3.88328E+03  1.76720E+04 -1.25448E+04  1.08914E+04
 -1.65684E+04  2.05915E+02 -1.26463E+04 -1.09753E+04 -1.60070E+03 -1.54722E+04  8.02345E+03 -1.10124E+04
  1.22744E+04 -3.31032E+03  8.04856E+03  2.98324E+03  3.22662E+03  4.79304E+03  1.27694E+03  2.73270E+03
  2.91461E+03  1.69558E+03  4.80787E+03  3.01586E+03  5.59220E+03  5.28762E+03  4.68371E+03  9.10520E+03
 -3.65541E+03  1.36026E+04 -1.32953E+04  1.42265E+04 -1.97370E+04  3.70580E+03 -1.94335E+04 -8.10103E+03
 -9.71850E+03 -1.84689E+04  2.28291E+03 -1.99031E+04  1.16543E+04 -1.23460E+04  1.39364E+04 -3.54830E+03
  1.24062E+04  7.83934E+03  2.78127E+03  9.42759E+03 -5.02298E+03  6.33678E+03 -8.13926E+03 -1.38253E+03
 -3.00215E+03 -7.72031E+03  4.24403E+03 -8.75053E+03  7.61851E+03 -2.95857E+03  8.59501E+03  1.36809E+03
  5.17998E+03  3.61922E+03  1.95586E+03  2.75870E+03 -1.50118E+03  2.59671E+03  1.72406E+03 -7.10217E+02
  2.66583E+03 -8.90415E+02  7.54712E+03  3.08243E+03  4.42227E+03  9.28070E+03 -1.29005E+03  1.36099E+04
 -9.44464E+03  8.75697E+03 -1.21890E+04  2.20575E+03 -1.02874E+04 -4.04226E+03 -4.78920E+03 -7.77406E+03
  1.03365E+03 -6.64875E+03  5.13768E+03 -3.46314E+03  3.81397E+03  4.15976E+03 -1.35996E+03  6.55368E+03
 -7.79713E+03  4.17136E+03 -9.67458E+03 -5.36539E+03 -5.45805E+03 -1.03433E+04  1.67564E+03 -1.11295E+04
  5.51579E+03 -6.08504E+03  8.05601E+03 -1.36755E+03  5.17192E+03  3.08842E+03  9.63455E+02  6.25488E+03
 -3.36242E+03  2.02946E+03 -4.38963E+03 -3.86637E+03  1.57993E+03 -9.32428E+03  9.11835E+03 -6.73666E+03
  1.17248E+04  9.98538E+02  1.08814E+04  8.52388E+03  3.50432E+03  1.32596E+04 -4.62531E+03  1.22149E+04
 -1.05335E+04  5.52740E+03 -1.15525E+04 -2.60696E+03 -6.01200E+03 -7.59605E+03  2.03750E+03 -8.58424E+03
  7.94937E+03 -3.75613E+03  6.66172E+03  3.15724E+03  2.83033E+03  6.80840E+03 -1.26427E+03  5.82990E+03
 -3.59163E+03  3.51432E+03 -3.89735E+03  2.53880E+02 -1.45915E+03  1.66404E+03 -1.18568E+03  3.31063E+03
 -2.77894E+03  4.20293E+03 -8.66403E+03  4.75219E+03 -1.27044E+04 -1.67809E+02 -1.52474E+04 -8.75480E+03
 -7.30361E+03 -1.69411E+04  2.99280E+03 -2.00714E+04  1.21652E+04 -1.48845E+04  1.85085E+04 -5.41593E+03
  1.65226E+04  4.56278E+03  9.73951E+03  1.23525E+04  1.15512E+03  1.39102E+04 -4.69002E+03  9.56781E+03
 -7.96949E+03  4.13100E+03 -5.49465E+03 -2.27962E+03 -1.42562E+03 -9.35754E+02 -1.52366E+03  2.72416E+01
 -2.26621E+03  3.16394E+02 -2.81972E+03 -6.77692E+02 -1.95508E+03 -2.97402E+03  8.55251E+01 -5.16374E+03
  6.58117E+03 -4.22463E+03  9.04230E+03 -5.90480E+01  8.86778E+03  7.33796E+03  2.73806E+03  1.41698E+04
 -6.00006E+03  1.60146E+04 -1.49598E+04  9.01499E+03 -1.72214E+04 -1.13609E+03 -1.29012E+04 -1.06357E+04
 -4.96970E+03 -1.46201E+04  3.67805E+03 -1.35180E+04  9.73958E+03 -7.31706E+03  9.91710E+03  7.23912E+02
  4.73620E+03  4.95104E+03 -2.88275E+02  3.57754E+03 -2.91398E+03 -3.27109E+01  6.16474E+02 -3.11723E+03
  4.56228E+03 -2.56365E+03  5.72576E+03  2.12612E+03  4.72718E+03  6.63633E+03 -7.86795E+00  7.35308E+03
 -7.06069E+03  6.20708E+03 -9.33568E+03 -8.72448E+00 -7.78887E+03 -7.65626E+03 -1.20961E+03 -1.24008E+04
  7.31734E+03 -1.12296E+04  1.19195E+04 -3.01969E+03  1.13198E+04  2.82745E+03  6.75762E+03  9.06957E+03
  9.41486E+02  9.91376E+03 -3.12879E+03  7.57307E+03 -6.38293E+03  5.05132E+03 -5.59155E+03  9.36692E+02
 -2.80353E+03  5.38258E+02 -2.36194E+03  1.28088E+03 -5.05080E+03  1.71304E+03 -6.38130E+03 -1.03214E+03
 -6.80073E+03 -5.74223E+03 -2.25388E+03 -9.56582E+03  4.00315E+03 -1.02790E+04  8.64354E+03 -5.78015E+03
  9.93983E+03  1.73881E+03  5.53197E+03  6.63853E+03 -1.31236E+02  8.88012E+03 -7.80296E+03  6.71271E+03
