 $NMID ID='MM_0lb_SNR400_13hz_g45_19.RAW', FMTDAT='(8E13.5)'
 TRAMP=1., VOLUME=1. $END
  3.09964E+05  6.01164E+02  3.37592E+05  2.50400E+05  8.44485E+04  3.38437E+05 -1.32104E+05  2.51645E+05
 -1.90471E+05  8.36294E+04 -1.12312E+05 -3.22885E+04  1.09096E+03 -5.11696E+04  5.34000E+04  2.90410E+02
  3.52166E+04  5.26627E+04 -1.67718E+04  7.55273E+04 -6.08112E+04  6.39112E+04 -8.40649E+04  3.23349E+04
 -8.06947E+04 -1.22301E+04 -5.71467E+04 -5.12320E+04 -1.55239E+04 -6.94003E+04  2.73945E+04 -4.63570E+04
  3.99445E+04  3.71902E+03  1.60798E+04  4.78445E+04 -3.48834E+04  4.68888E+04 -6.67158E+04 -5.52006E+02
 -5.33497E+04 -5.67552E+04 -7.38074E+03 -7.75961E+04  3.43499E+04 -5.55391E+04  4.84252E+04 -1.73521E+04
  4.32151E+04  1.14854E+04  3.24423E+04  2.58172E+04  1.58020E+04  2.92879E+04 -5.33368E+03  2.73894E+04
 -2.23888E+04  1.15739E+04 -1.90165E+04 -5.32510E+03  6.76207E+03 -7.08234E+03  2.25884E+04  1.24736E+04
  7.05441E+03  3.54147E+04 -3.24386E+04  3.62648E+04 -6.29346E+04  2.45079E+03 -5.73881E+04 -4.30286E+04
 -1.22205E+04 -6.38069E+04  3.99905E+04 -4.60001E+04  5.79928E+04 -1.71983E+03  3.42986E+04  3.24908E+04
 -6.52750E+03  3.64667E+04 -3.01199E+04  1.68159E+04 -3.04092E+04 -5.12429E+03 -1.71641E+04 -1.12795E+04
 -8.68099E+03 -1.23624E+04 -9.08020E+02 -1.80522E+04  7.54836E+03 -2.23715E+04  1.55198E+04 -1.38167E+04
  1.19323E+04  5.31234E+03 -8.37540E+03  1.32375E+04 -2.18873E+04 -4.60431E+03 -8.64523E+03 -3.44673E+04
  2.31251E+04 -4.38670E+04  4.81858E+04 -1.97956E+04  4.55703E+04  1.97640E+04  1.54358E+04  4.39978E+04
 -1.63255E+04  3.36876E+04 -2.55259E+04  1.98811E+03 -1.01893E+04 -2.74382E+04  2.01996E+04 -3.50499E+04
  4.13722E+04 -8.46938E+03  3.59797E+04  2.43532E+04  1.85130E+04  4.68526E+04 -8.19704E+03  5.09653E+04
 -3.21733E+04  3.42854E+04 -4.27949E+04  9.60340E+03 -4.30340E+04 -1.65136E+04 -2.37834E+04 -3.82660E+04
  7.76322E+03 -3.77681E+04  3.18148E+04 -1.45683E+04  2.94015E+04  1.04601E+04  3.99975E+03  1.95994E+04
 -1.34355E+04  8.33187E+03 -1.04033E+04 -7.41578E+03  6.41972E+03 -1.11609E+04  1.82864E+04  6.34788E+03
  1.41172E+04  2.20362E+04 -6.01202E+03  2.52474E+04 -2.20782E+04  1.09536E+04 -2.85849E+04 -4.37131E+03
 -2.14149E+04 -1.74083E+04 -8.98410E+03 -2.12958E+04  4.15030E+03 -2.04411E+04  1.61373E+04 -1.90036E+04
  2.64147E+04 -1.31546E+04  3.36239E+04  3.06016E+03  2.39500E+04  2.07824E+04  4.11606E+03  3.74877E+04
 -1.80529E+04  3.14269E+04 -2.82627E+04  1.05264E+04 -2.11096E+04 -1.04205E+04 -3.94141E+03 -1.35520E+04
  1.93236E+03 -2.38894E+03 -4.61267E+03  6.84888E+03 -1.61596E+04  5.19463E+03 -1.68493E+04 -7.32793E+03
 -9.70782E+03 -1.98151E+04  4.32656E+03 -2.34073E+04  1.56456E+04 -1.66499E+04  1.84404E+04 -2.25008E+03
  1.16218E+04  1.34606E+04 -6.44105E+02  1.95696E+04 -1.37053E+04  1.09681E+04 -1.98980E+04 -5.30526E+03
 -1.43021E+04 -1.73977E+04 -1.67416E+03 -2.38816E+04  1.06009E+04 -1.90082E+04  1.98057E+04 -9.19552E+03
  1.92990E+04 -1.51118E+02  1.33599E+04  4.92843E+03  6.41865E+03  6.87026E+02  9.75253E+03 -1.07458E+03
  1.78808E+04  2.47960E+03  2.01575E+04  1.51212E+04  1.28600E+04  3.09915E+04 -2.13585E+03  3.53659E+04
 -2.04786E+04  2.85768E+04 -3.31969E+04  1.47238E+04 -3.47040E+04 -2.91391E+03 -2.85445E+04 -2.02714E+04
 -1.20221E+04 -2.86544E+04  9.96681E+03 -2.60968E+04  2.20217E+04 -1.29966E+04  2.02750E+04  5.65877E+03
  7.39317E+03  1.45484E+04 -9.31838E+03  1.30773E+04 -1.66294E+04  3.03931E+03 -1.22775E+04 -1.07339E+04
 -3.58918E+01 -1.59679E+04  7.48446E+03 -1.20784E+04  1.08149E+04 -1.11713E+03  2.31917E+03  6.45539E+03
 -7.47959E+03  2.65204E+03 -6.39208E+03 -5.35170E+03 -7.27197E+02 -1.41241E+04  9.44396E+03 -1.46057E+04
  1.68847E+04 -8.08313E+03  1.95352E+04  3.03488E+03  1.64511E+04  1.38743E+04  7.83423E+03  2.14922E+04
 -3.77695E+03  2.26107E+04 -1.52774E+04  1.47008E+04 -1.73601E+04  3.24189E+03 -1.09017E+04 -3.41804E+03
 -4.83239E+03 -4.81289E+03 -1.38224E+03  1.13664E+03 -2.76345E+03  2.81398E+03 -5.39205E+03  4.76171E+03
 -1.14718E+04 -5.96707E+02 -1.21341E+04 -8.70988E+03 -4.64636E+03 -1.53307E+04  4.53755E+03 -1.19579E+04
  9.97471E+03 -4.96598E+03  7.40518E+03  3.34939E+03 -4.45785E+02  4.81810E+03 -5.44407E+03 -9.30904E+00
 -5.55288E+03 -7.15914E+03 -8.77352E+02 -1.12435E+04  6.06321E+03 -1.26929E+04  1.42825E+04 -5.88686E+03
  1.75912E+04  1.51714E+03  1.29923E+04  1.05153E+04  2.10299E+03  1.37903E+04 -7.56501E+03  1.20139E+04
 -9.37548E+03  3.71308E+03 -5.24064E+03 -2.48891E+03  1.87947E+03 -2.67215E+03  6.77633E+03 -1.38073E+03
  4.98316E+03  4.94658E+03  1.43460E+03  9.15209E+03 -6.06790E+03  9.08926E+03 -1.16180E+04  2.74406E+03
 -7.63815E+03 -5.29766E+03  4.01590E+02 -9.32094E+03  5.81414E+03 -4.68180E+03  6.55703E+03  2.21269E+03
  8.69605E+02  6.63418E+03 -6.19580E+03  7.28704E+03 -9.46106E+03  3.40811E+03 -9.14227E+03 -2.98146E+03
 -5.51927E+03 -1.04999E+04  1.80084E+03 -1.18470E+04  1.02470E+04 -7.71494E+03  1.10492E+04  1.21041E+03
  6.50447E+03  8.72374E+03  4.01316E+02  1.10579E+04 -8.50400E+03  7.11912E+03 -8.65888E+03 -9.37630E+02
 -7.54837E+03 -7.17094E+03 -1.30497E+03 -8.82335E+03  4.54726E+03 -6.54469E+03  5.53915E+03 -3.09706E+03
  3.37847E+03  1.25537E+03 -1.13858E+02  1.51121E+03 -2.36951E+00 -1.79659E+03  1.44403E+03 -4.25165E+03
  7.57417E+03 -3.11733E+03  9.88726E+03  5.66257E+02  1.02648E+04  6.33653E+03  7.90534E+03  1.32573E+04
 -2.69188E+03  1.57378E+04 -1.34159E+04  1.22453E+04 -1.71723E+04  2.17187E+03 -1.41814E+04 -5.89001E+03
 -6.82062E+03 -1.14849E+04 -2.02191E+02 -9.21880E+03  3.62370E+03 -4.81420E+03  2.78220E+03 -3.86065E+03
  2.34310E+03 -1.82858E+03  2.63061E+03 -2.70481E+03  4.39589E+03 -2.15439E+03  4.75890E+03 -2.72692E+02
  7.13004E+03  2.02888E+03  3.82417E+03  5.91713E+03 -2.75499E+03  6.88569E+03 -7.26289E+03  5.42781E+03
 -8.92647E+03 -1.51276E+03 -4.68597E+03 -6.43204E+03 -1.80208E+02 -9.38484E+03  5.71188E+03 -9.99904E+03
  1.05032E+04 -6.14030E+03  1.28404E+04  1.77300E+03  8.61250E+03  9.26838E+03  2.02738E+03  1.05343E+04
 -4.75575E+03  9.74956E+03 -6.57991E+03  3.26010E+03 -4.22200E+03 -1.59843E+03 -1.80548E+03 -7.64060E+02
 -9.78244E+02  4.25274E+02 -1.65477E+03  2.73186E+03 -4.38572E+03  1.70339E+03 -6.26553E+03 -1.20719E+03
 -3.75318E+03 -6.76214E+03  1.15309E+03 -8.62780E+03  6.00633E+03 -8.08201E+03  8.44984E+03 -3.05189E+03
  8.34646E+03  4.65173E+03  4.44921E+03  7.39295E+03 -1.35540E+03  8.89075E+03 -6.28157E+03  5.56153E+03
 -8.09648E+03  4.85136E+02 -6.87793E+03 -4.66033E+03 -3.10653E+02 -7.17788E+03  3.73976E+03 -5.07747E+03
  5.53987E+03 -2.25210E+03  3.18986E+03  1.25792E+03  1.42282E+03  2.78900E+03  4.89123E+02  8.52897E+02
  1.98674E+03  1.48796E+03  2.07332E+03  1.50222E+03  2.42072E+03  3.46649E+03  2.94497E+03  5.45488E+03
 -2.31600E+03  6.18712E+03 -6.72116E+03  7.60336E+03 -7.94461E+03  1.80002E+03 -8.85369E+03 -3.47392E+03
 -4.60749E+03 -8.10533E+03  1.49494E+03 -1.00676E+04  5.44600E+03 -5.70985E+03  6.63439E+03 -2.05034E+03
  5.50917E+03  3.52808E+03  1.42174E+03  4.61830E+03 -2.18231E+03  3.23878E+03 -3.16852E+03 -1.57454E+02
 -1.61539E+03 -3.26506E+03  1.90163E+03 -3.36947E+03  3.65995E+03 -2.03327E+03  2.95867E+03  5.11736E+02
  1.87710E+03  1.65203E+03  5.57345E+02  1.07241E+03 -6.71956E+02  9.37737E+02  1.33052E+03 -4.48482E+02
  1.30711E+03 -3.30413E+02  3.92783E+03  1.37611E+03  2.23413E+03  4.91369E+03 -5.09228E+02  6.18401E+03
 -4.29307E+03  3.78400E+03 -4.86890E+03  3.98524E+02 -4.82794E+03 -2.41070E+03 -1.72104E+03 -2.39291E+03
  1.00065E+03 -3.52038E+03  2.13468E+03 -1.94143E+03  1.29895E+03  1.91465E+03 -1.61899E+03  2.27036E+03
 -3.60423E+03  1.44499E+03 -3.12307E+03 -2.38085E+03 -2.22040E+03 -4.43757E+03  5.50207E+02 -4.29286E+03
  1.72036E+03 -2.19145E+03  2.73637E+03 -5.16321E+02  2.78457E+03  6.06987E+02  2.76698E+02  2.27104E+03
 -1.46379E+03  4.29579E+02 -1.35126E+03 -1.57874E+03  5.17409E+02 -2.75212E+03  4.26073E+03 -2.18851E+03
  4.37492E+03  4.11255E+02  5.54248E+03  2.89078E+03  1.67092E+03  5.12608E+03 -1.89667E+03  4.56244E+03
 -4.71568E+03  1.49811E+03 -4.53427E+03 -4.96625E+02 -1.87697E+03 -3.69562E+03  5.47646E+02 -2.14539E+03
  2.71711E+03 -1.43084E+03  2.31155E+03  1.20185E+03  8.72657E+02  3.12403E+03 -5.69670E+02  2.62336E+03
 -9.93669E+02  2.11403E+03 -1.43908E+03  1.47594E+02 -7.42808E+02  9.26980E+02 -1.33451E+03  1.28052E+03
 -1.15471E+03  2.35342E+03 -3.82782E+03  1.19775E+03 -5.16105E+03  1.56167E+02 -5.70349E+03 -3.81390E+03
 -3.59941E+03 -6.27541E+03  1.22661E+03 -7.60204E+03  4.61260E+03 -5.53587E+03  7.05504E+03 -2.09087E+03
  6.63743E+03  8.39939E+02  3.76944E+03  4.60702E+03 -2.12235E+02  4.56761E+03 -1.75566E+03  3.86364E+03
 -2.66672E+03  1.03229E+03 -2.13383E+03 -1.01925E+03 -1.34593E+03  2.10989E+01 -5.81419E+02 -4.80003E+02
 -2.05403E+03 -2.96884E+02 -1.91002E+03 -1.62528E+02 -1.74287E+02 -1.05665E+03 -1.42466E+01 -1.72092E+03
  2.15163E+03 -1.65434E+03  2.50721E+03 -5.58047E+01  3.41320E+03  2.85565E+03  5.45557E+02  4.32594E+03
 -2.31310E+03  5.92643E+03 -5.62799E+03  3.15751E+03 -6.11596E+03 -5.27887E+02 -4.03773E+03 -3.76508E+03
 -2.12590E+03 -4.95239E+03  1.90827E+03 -3.82699E+03  2.58099E+03 -2.89148E+03  2.84505E+03  1.63404E+02
  1.60446E+03  1.89911E+03  2.31924E+01  1.34028E+03 -9.74123E+02  6.87985E+01 -3.22179E+02 -7.61135E+02
  1.41120E+03 -6.40963E+02  2.06285E+03  5.56964E+02  1.17446E+03  1.75347E+03  6.52073E+01  2.07017E+03
 -1.90886E+03  2.05645E+03 -2.69747E+03  4.99295E+02 -2.78825E+03 -1.65243E+03 -5.06233E+02 -3.61111E+03
  2.32306E+03 -3.44768E+03  3.01329E+03 -8.40775E+02  3.25677E+03  3.97691E+02  1.77616E+03  2.47650E+03
  6.46204E+02  2.65936E+03 -1.22039E+03  2.40999E+03 -1.91422E+03  1.57834E+03 -1.45729E+03  6.38648E+02
 -4.89032E+02 -4.27387E+02 -1.10688E+03  4.70543E+02 -2.00175E+03  1.26943E+03 -2.55065E+03 -6.21860E+02
 -2.41193E+03 -9.12095E+02 -4.98854E+02 -3.09118E+03  1.82438E+03 -3.62951E+03  2.76507E+03 -1.80943E+03
  2.60444E+03  5.97976E+02  1.14050E+03  2.19713E+03 -2.68381E+02  3.28462E+03 -3.01868E+03  1.89889E+03
