 $NMID ID='MM_0lb_SNR400_19hz_g45_100.RAW', FMTDAT='(8E13.5)'
 TRAMP=1., VOLUME=1. $END
  3.09912E+05  3.77761E+02  3.37130E+05  2.50615E+05  8.42348E+04  3.37150E+05 -1.32318E+05  2.50203E+05
 -1.89842E+05  8.19409E+04 -1.10857E+05 -3.24895E+04  2.15113E+03 -4.98142E+04  5.37687E+04  1.65111E+02
  3.51009E+04  5.28555E+04 -1.68790E+04  7.50060E+04 -6.08227E+04  6.23026E+04 -8.26087E+04  3.10269E+04
 -7.95482E+04 -1.10269E+04 -5.59384E+04 -4.98843E+04 -1.47832E+04 -6.77295E+04  2.68402E+04 -4.42593E+04
  3.93486E+04  3.84499E+03  1.53843E+04  4.66666E+04 -3.39743E+04  4.63788E+04 -6.55043E+04 -4.03922E+02
 -5.21647E+04 -5.57973E+04 -6.50037E+03 -7.50541E+04  3.31471E+04 -5.29690E+04  4.61154E+04 -1.56390E+04
  4.11671E+04  1.12838E+04  3.07794E+04  2.42461E+04  1.56343E+04  2.80110E+04 -4.52599E+03  2.64742E+04
 -2.19218E+04  1.32128E+04 -1.95519E+04 -4.48575E+03  4.45635E+03 -7.56391E+03  2.09166E+04  1.05217E+04
  7.34994E+03  3.30344E+04 -2.97877E+04  3.33821E+04 -6.03828E+04  2.76546E+03 -5.53369E+04 -4.10212E+04
 -1.22661E+04 -6.03950E+04  3.76412E+04 -4.33938E+04  5.47752E+04 -1.68307E+03  3.16616E+04  3.03900E+04
 -6.79808E+03  3.27357E+04 -2.85560E+04  1.31364E+04 -2.74301E+04 -5.29868E+03 -1.40157E+04 -9.97134E+03
 -7.24851E+03 -1.11958E+04 -1.20908E+03 -1.63061E+04  6.85042E+03 -2.26426E+04  1.52798E+04 -1.36470E+04
  1.21554E+04  4.03279E+03 -5.81874E+03  1.31496E+04 -1.92729E+04 -2.01974E+03 -7.82812E+03 -2.98744E+04
  2.04745E+04 -3.99391E+04  4.43557E+04 -1.84832E+04  4.12307E+04  1.78749E+04  1.40875E+04  4.13992E+04
 -1.58684E+04  3.02804E+04 -2.27901E+04  1.61651E+03 -8.06306E+03 -2.57437E+04  2.02718E+04 -3.04758E+04
  3.74404E+04 -7.46485E+03  3.05837E+04  2.29417E+04  1.47946E+04  4.19997E+04 -7.49497E+03  4.49245E+04
 -2.81322E+04  2.92694E+04 -3.65607E+04  8.21491E+03 -3.74212E+04 -1.48508E+04 -2.08872E+04 -3.34139E+04
  7.13293E+03 -3.35243E+04  2.84877E+04 -1.22547E+04  2.65587E+04  1.10864E+04  2.88703E+03  1.72097E+04
 -1.25358E+04  7.00908E+03 -9.59227E+03 -7.95630E+03  5.84361E+03 -9.64922E+03  1.75855E+04  6.43046E+03
  1.24637E+04  2.12556E+04 -7.14568E+03  2.32160E+04 -2.10304E+04  8.88253E+03 -2.48584E+04 -6.60768E+03
 -1.61920E+04 -1.65238E+04 -5.08213E+03 -1.67000E+04  4.02849E+03 -1.45007E+04  1.16613E+04 -1.42582E+04
  2.09392E+04 -1.14304E+04  2.73915E+04  6.21326E+02  2.08184E+04  1.57547E+04  4.01467E+03  3.17521E+04
 -1.55947E+04  2.68288E+04 -2.56610E+04  9.27565E+03 -1.87901E+04 -9.89313E+03 -3.81404E+03 -1.40523E+04
  2.42695E+03 -4.24967E+03 -2.54247E+03  5.03535E+03 -1.30566E+04  4.76584E+03 -1.33626E+04 -4.50281E+03
 -8.49608E+03 -1.48245E+04  3.88033E+03 -1.91388E+04  1.23200E+04 -1.37178E+04  1.39812E+04 -1.86019E+03
  8.20021E+03  1.02844E+04 -1.09257E+03  1.52973E+04 -1.01689E+04  8.19865E+03 -1.49728E+04 -3.78672E+03
 -1.16933E+04 -1.42996E+04 -1.88759E+03 -1.84489E+04  8.54223E+03 -1.48620E+04  1.52709E+04 -6.62955E+03
  1.41019E+04  7.69878E+02  1.02682E+04  3.86583E+03  4.74088E+03  6.00622E+02  7.19615E+03 -1.01831E+03
  1.34361E+04  2.44358E+03  1.39668E+04  1.23264E+04  8.53658E+03  2.41782E+04 -3.49124E+03  2.54303E+04
 -1.52428E+04  1.95552E+04 -2.40371E+04  9.09016E+03 -2.37269E+04 -1.92373E+03 -2.00596E+04 -1.38014E+04
 -9.54233E+03 -1.92631E+04  6.52677E+03 -1.81055E+04  1.56517E+04 -1.04866E+04  1.53975E+04  3.18495E+03
  6.65277E+03  1.08966E+04 -6.82907E+03  1.02170E+04 -1.22852E+04  2.95334E+03 -9.58178E+03 -7.58001E+03
 -1.96095E+02 -1.18606E+04  5.94954E+03 -9.34299E+03  7.88663E+03 -1.14957E+03  1.29568E+03  4.22755E+03
 -5.46846E+03  1.13587E+03 -3.39776E+03 -4.80521E+03  5.63093E+02 -9.59093E+03  7.89761E+03 -9.39544E+03
  1.19538E+04 -3.96766E+03  1.13984E+04  3.07809E+03  9.87254E+03  8.43650E+03  4.97575E+03  1.30684E+04
 -1.55524E+03  1.51840E+04 -9.12103E+03  1.00730E+04 -1.05157E+04  2.81637E+03 -7.82437E+03 -1.97093E+03
 -4.34684E+03 -2.85649E+03 -1.06301E+03  1.19595E+03 -1.95184E+03  1.44399E+03 -3.81993E+03  3.64096E+03
 -7.31743E+03 -4.09136E+02 -8.94631E+03 -7.35924E+03 -3.37595E+03 -1.12678E+04  3.21460E+03 -8.20924E+03
  7.25419E+03 -3.54157E+03  5.42724E+03  1.91048E+03  2.91399E+02  2.67524E+03 -3.33763E+03 -1.70053E+02
 -3.08364E+03 -5.21108E+03 -6.86250E+02 -7.03295E+03  4.01290E+03 -7.29829E+03  9.51731E+03 -3.82003E+03
  1.13385E+04  5.67079E+02  8.10675E+03  6.15581E+03  1.41789E+03  7.84848E+03 -5.17317E+03  8.22464E+03
 -6.52326E+03  2.84602E+03 -3.08071E+03 -9.99458E+02  1.69009E+03 -1.55230E+03  4.86104E+03 -1.06833E+03
  3.79434E+03  3.28842E+03  1.05505E+03  6.20857E+03 -4.70750E+03  6.40213E+03 -7.97562E+03  1.60378E+03
 -4.83604E+03 -3.44035E+03  1.43406E+02 -6.41914E+03  3.54297E+03 -2.83085E+03  3.47752E+03  9.52563E+02
  8.11122E+02  2.96703E+03 -3.83427E+03  4.48280E+03 -4.57121E+03  2.27753E+03 -4.01535E+03 -1.18925E+03
 -3.30257E+03 -5.81864E+03  1.74042E+03 -6.17700E+03  5.14053E+03 -4.30088E+03  5.72691E+03  1.07898E+03
  4.62946E+03  5.13840E+03 -3.47476E+02  6.67791E+03 -4.90259E+03  4.01857E+03 -4.01390E+03 -5.33781E+02
 -5.16499E+03 -4.72629E+03 -8.36893E+02 -4.96800E+03  2.63618E+03 -4.56138E+03  2.75771E+03 -2.58659E+03
  2.89873E+03 -6.38148E+00  2.45753E+02  1.51448E+03  2.38672E+02 -2.62765E+02 -8.24673E+01 -1.48775E+03
  3.77601E+03 -6.24177E+02  4.80597E+03  6.16036E+02  5.07785E+03  2.27215E+03  5.08009E+03  6.22778E+03
 -6.95878E+02  7.91116E+03 -7.00970E+03  5.85102E+03 -9.06772E+03  1.26790E+03 -7.66600E+03 -2.41301E+03
 -4.10825E+03 -6.14225E+03 -6.77642E+02 -5.07610E+03  2.33179E+03 -2.41935E+03  1.63300E+03 -2.51310E+03
  7.17172E+02 -1.21398E+03  2.16605E+03 -2.33202E+03  3.70042E+03 -1.02116E+03  2.94121E+03  8.15680E+02
  4.19433E+03  1.29308E+03  1.08748E+03  3.03405E+03 -1.54670E+03  2.57663E+03 -4.30450E+03  2.31880E+03
 -4.20301E+03 -1.25894E+03 -1.76959E+03 -3.60511E+03  9.70965E+02 -4.29450E+03  2.87643E+03 -4.86720E+03
  4.60878E+03 -3.34971E+03  6.64074E+03  1.41174E+02  5.02617E+03  4.05942E+03  1.24937E+03  5.44180E+03
 -1.99031E+03  5.70238E+03 -2.27836E+03  2.30489E+03 -1.67718E+03 -8.16679E+02 -9.37284E+02 -3.98964E+02
 -3.61193E+02  4.84347E+02 -6.47169E+02  1.79107E+03 -2.47108E+03  8.35068E+02 -3.84761E+03 -8.80438E+01
 -1.27540E+03 -3.94193E+03  3.87048E+02 -4.14607E+03  2.62562E+03 -4.06442E+03  3.13423E+03 -1.20246E+03
  4.03107E+03  2.03516E+03  1.53264E+03  2.74234E+03 -1.03046E+03  4.04828E+03 -2.63099E+03  2.53194E+03
 -3.17541E+03  5.41663E+02 -2.87263E+03 -1.94152E+03 -6.65747E+01 -2.81237E+03  1.41180E+03 -2.22719E+03
  2.55441E+03 -8.47898E+02  1.71901E+03  8.82289E+02  2.79016E+02  1.62453E+03  5.89182E+02  4.30960E+02
  1.87877E+03  6.92404E+02  1.10122E+03  1.28650E+03  7.95447E+02  2.37734E+03  1.30475E+03  1.98282E+03
 -1.09895E+03  2.87677E+03 -2.32635E+03  3.56223E+03 -3.05965E+03  1.43154E+03 -3.71282E+03 -5.23628E+02
 -1.42675E+03 -2.91018E+03  6.05826E+02 -4.98838E+03  1.87661E+03 -2.09154E+03  2.83912E+03 -8.61535E+02
  2.69292E+03  1.54773E+03  7.70416E+02  1.77388E+03 -3.08038E+02  1.10975E+03 -6.48199E+02  5.74644E+02
 -9.00376E+02 -1.68981E+03  1.24242E+03 -1.76399E+03  1.34849E+03 -8.41204E+02  9.50143E+02  4.87986E+02
  7.93745E+02  1.11031E+02  3.46948E+02 -4.67536E+02  3.39575E+01  6.04252E+02  1.42622E+03 -7.21222E+01
 -2.91094E+02 -6.04928E+00  1.93663E+03  9.01656E+02 -1.71090E+02  2.19267E+03 -4.44158E+02  2.41166E+03
 -1.88763E+03  5.51870E+02 -1.27847E+03  3.19138E+02 -1.85547E+03 -9.21201E+02 -2.55519E+02 -1.11060E+03
  4.31985E+02 -6.24779E+02  4.57700E+01 -6.40033E+02  5.37775E+02  1.82992E+03 -1.11875E+03  9.01919E+02
 -1.52960E+03  9.94972E+02 -1.51622E+03 -1.06016E+03 -7.42780E+02 -1.96504E+03  2.14825E+02 -9.54542E+02
  3.02173E+02 -7.89400E+02  6.02763E+02  9.26464E+01  9.99678E+02  2.97461E+02  3.00955E+02  1.12638E+03
 -3.46438E+01 -7.53460E-01 -6.92058E+02  3.37283E+02  6.20231E+02 -2.58040E+02  1.44191E+03 -9.66019E+02
  1.16653E+03  4.79314E+02  2.74846E+03  5.30691E+02  9.91808E+02  1.61949E+03  1.64773E+02  1.57802E+03
 -1.27016E+03 -1.98705E+02 -9.87163E+02 -5.02667E+02 -2.44929E+02 -7.06473E+02 -1.99587E+02 -4.68446E+02
  1.45126E+03 -3.98239E+02  9.23180E+02  6.38032E+02  1.17168E+01  1.46911E+03  5.18379E+02  1.01224E+03
 -2.88269E+02  1.20562E+03 -5.05502E+02 -1.01994E+02 -2.87736E+02  1.18024E+02 -5.55426E+02  1.96508E+02
 -6.73557E+02  9.99700E+02 -1.84359E+03 -2.68784E+01 -1.12037E+03  3.63956E+02 -2.23363E+03 -1.44032E+03
 -6.65918E+02 -2.43557E+03  4.20177E+02 -2.96591E+03  1.07708E+03 -2.44876E+03  1.91007E+03 -9.73934E+02
  2.09065E+03 -1.14209E+02  1.06705E+03  9.42782E+02 -6.90425E+02  1.31230E+03 -4.24117E+02  1.54025E+03
 -1.22078E+03  6.38630E+02 -5.31560E+02 -7.62101E+01 -2.01817E+02  1.78185E+02 -9.26246E+02 -3.86759E+02
 -1.26182E+03 -4.90806E+02 -7.85936E+02 -4.86724E+02  4.54445E+01 -9.88503E+02 -4.95258E+02 -6.25347E+02
  1.47574E+03 -1.16165E+03  6.04601E+02  1.54249E+02  1.03345E+03  1.15986E+03 -2.12800E+02  1.05214E+03
 -8.98930E+02  1.64851E+03 -1.50790E+03  1.47023E+03 -1.48196E+03  6.53686E+01 -1.64946E+03 -7.12530E+02
 -1.15540E+03 -7.97784E+02  8.28300E+02 -1.05198E+03 -8.40751E+00 -6.87546E+02  3.60967E+02  1.59409E+02
  1.01086E+03  2.94319E+02 -2.43188E+02  6.14851E+02 -1.41690E+02  3.17132E+02 -2.18956E+02 -2.20853E+02
  2.75564E+02  3.43225E+02 -2.10197E+02  2.45836E+02 -7.35878E+01  4.97003E+02  9.57528E+02 -1.43885E+02
 -3.82205E+02  5.11907E+02 -5.60500E+02  3.49300E+02 -9.17148E+02 -7.16803E+02  6.74573E+02 -1.33729E+03
  1.18723E+01 -4.50217E+02  3.61276E+02 -1.46460E+02  1.15753E+03 -3.09906E+02  1.54970E+02  7.07279E+02
  1.21505E+02 -1.11155E+02 -1.62848E+02  9.93908E+02 -3.97774E+02  8.25758E+02 -1.51709E+02 -3.02907E+01
 -2.74057E+02 -7.73334E+01 -3.21204E+02 -4.47093E+02 -1.10928E+03  2.01747E+02 -3.85062E+02 -4.75297E+02
 -8.43414E+02  2.00181E+02 -7.04001E+02 -8.58882E+02  2.00358E+02 -1.13381E+03  9.96954E+02 -2.14158E+02
  4.31906E+02 -1.38797E+02 -7.20566E+02  3.50593E+02 -9.43196E+01  1.17625E+03 -3.03079E+02  7.84861E+02
