 $NMID ID='MM_0lb_SNR400_16hz_g45_1.RAW', FMTDAT='(8E13.5)'
 TRAMP=1., VOLUME=1. $END
  3.09814E+05  2.97602E+02  3.37534E+05  2.50485E+05  8.41986E+04  3.37554E+05 -1.32320E+05  2.50725E+05
 -1.89406E+05  8.28972E+04 -1.10870E+05 -3.28106E+04  1.22245E+03 -4.99952E+04  5.37092E+04  3.92349E+02
  3.56572E+04  5.29205E+04 -1.72145E+04  7.52391E+04 -6.07160E+04  6.32720E+04 -8.39139E+04  3.17498E+04
 -8.03378E+04 -1.08015E+04 -5.62176E+04 -5.10696E+04 -1.54048E+04 -6.84851E+04  2.73864E+04 -4.50487E+04
  3.95493E+04  3.40997E+03  1.49275E+04  4.76632E+04 -3.36916E+04  4.64663E+04 -6.61721E+04 -5.46113E+02
 -5.25432E+04 -5.64451E+04 -7.02959E+03 -7.55701E+04  3.32102E+04 -5.38648E+04  4.75528E+04 -1.73416E+04
  4.21540E+04  1.12369E+04  3.09661E+04  2.43256E+04  1.56158E+04  2.90648E+04 -4.92913E+03  2.70672E+04
 -2.23342E+04  1.24887E+04 -1.88953E+04 -5.51994E+03  4.86130E+03 -7.53559E+03  2.16340E+04  1.14759E+04
  7.41079E+03  3.40522E+04 -3.11400E+04  3.47377E+04 -6.18117E+04  1.87881E+03 -5.63097E+04 -4.22130E+04
 -1.26028E+04 -6.29303E+04  3.85243E+04 -4.41462E+04  5.72748E+04 -2.43755E+03  3.29444E+04  3.14864E+04
 -6.31572E+03  3.47618E+04 -2.89816E+04  1.49647E+04 -2.89760E+04 -5.08847E+03 -1.52618E+04 -1.02394E+04
 -8.09251E+03 -1.19756E+04 -1.03808E+03 -1.72400E+04  7.30064E+03 -2.25156E+04  1.50052E+04 -1.32668E+04
  1.17963E+04  4.48739E+03 -6.79959E+03  1.33142E+04 -2.03139E+04 -3.86782E+03 -7.71889E+03 -3.17149E+04
  2.14623E+04 -4.17010E+04  4.57293E+04 -1.93289E+04  4.31221E+04  1.92986E+04  1.44020E+04  4.22629E+04
 -1.54615E+04  3.20412E+04 -2.46703E+04  1.72039E+03 -8.99745E+03 -2.73276E+04  2.03940E+04 -3.18975E+04
  3.95352E+04 -7.91937E+03  3.34207E+04  2.35339E+04  1.60326E+04  4.47194E+04 -7.72963E+03  4.70188E+04
 -3.01212E+04  3.21290E+04 -3.97908E+04  9.38263E+03 -4.00187E+04 -1.56479E+04 -2.21513E+04 -3.60087E+04
  7.02441E+03 -3.60062E+04  3.05818E+04 -1.35536E+04  2.80773E+04  1.09719E+04  3.50044E+03  1.85170E+04
 -1.30475E+04  7.39260E+03 -1.00071E+04 -7.23876E+03  6.17839E+03 -1.03432E+04  1.76192E+04  6.27121E+03
  1.31329E+04  2.18825E+04 -6.04613E+03  2.42888E+04 -2.17047E+04  9.63059E+03 -2.67968E+04 -5.68690E+03
 -1.83753E+04 -1.63786E+04 -6.74128E+03 -1.81776E+04  3.39064E+03 -1.65797E+04  1.35766E+04 -1.61442E+04
  2.34537E+04 -1.22879E+04  3.05920E+04  2.36112E+03  2.21902E+04  1.75420E+04  4.06038E+03  3.46119E+04
 -1.71619E+04  2.90653E+04 -2.72418E+04  9.51715E+03 -2.04596E+04 -1.05831E+04 -3.99257E+03 -1.39844E+04
  2.08600E+03 -3.65050E+03 -3.57897E+03  6.00970E+03 -1.44833E+04  5.13547E+03 -1.45215E+04 -6.28080E+03
 -9.11438E+03 -1.70104E+04  4.63995E+03 -2.13703E+04  1.44349E+04 -1.51329E+04  1.60978E+04 -1.13704E+03
  9.98179E+03  1.19144E+04 -1.09827E+03  1.69457E+04 -1.15038E+04  9.36364E+03 -1.69776E+04 -3.34550E+03
 -1.28880E+04 -1.54920E+04 -1.68798E+03 -2.10154E+04  9.88734E+03 -1.68233E+04  1.75048E+04 -7.64658E+03
  1.62787E+04  5.97010E+02  1.18930E+04  4.30848E+03  5.58383E+03  7.39600E+02  8.23317E+03 -1.70568E+03
  1.50257E+04  2.51037E+03  1.70872E+04  1.35488E+04  1.09230E+04  2.69647E+04 -3.05055E+03  3.01379E+04
 -1.78753E+04  2.32804E+04 -2.74216E+04  1.19404E+04 -2.84837E+04 -1.62071E+03 -2.47180E+04 -1.63319E+04
 -1.12462E+04 -2.38886E+04  8.02368E+03 -2.16674E+04  1.85852E+04 -1.18245E+04  1.77087E+04  4.48174E+03
  6.78663E+03  1.33322E+04 -7.82087E+03  1.14264E+04 -1.49013E+04  2.43718E+03 -1.12828E+04 -8.76985E+03
  2.96739E+01 -1.36888E+04  6.65675E+03 -1.05960E+04  8.70499E+03 -9.06753E+02  2.04632E+03  5.52526E+03
 -6.09266E+03  1.78477E+03 -4.64751E+03 -4.90389E+03  5.74302E+02 -1.11946E+04  8.68666E+03 -1.19211E+04
  1.41642E+04 -5.57393E+03  1.45654E+04  2.65884E+03  1.19959E+04  1.08886E+04  6.08852E+03  1.72815E+04
 -2.03062E+03  1.87049E+04 -1.18030E+04  1.20883E+04 -1.35622E+04  3.07234E+03 -1.00909E+04 -3.04653E+03
 -5.10206E+03 -3.69612E+03 -9.88156E+02  1.59428E+03 -2.08378E+03  2.54514E+03 -4.46477E+03  3.90486E+03
 -9.34960E+03 -4.49187E+02 -1.02044E+04 -8.16580E+03 -4.02379E+03 -1.26574E+04  4.50824E+03 -1.00870E+04
  7.91091E+03 -4.34354E+03  6.23345E+03  2.46366E+03  7.73851E+02  3.99298E+03 -4.34574E+03 -4.69736E+02
 -4.18099E+03 -6.65933E+03 -9.19193E+02 -8.20849E+03  4.98490E+03 -9.55846E+03  1.21289E+04 -5.24473E+03
  1.35181E+04  3.79536E+02  1.06261E+04  7.82864E+03  1.76672E+03  1.04525E+04 -6.54519E+03  9.41808E+03
 -7.83905E+03  2.89845E+03 -4.26733E+03 -1.89412E+03  1.32282E+03 -2.49496E+03  5.44184E+03 -1.45184E+03
  5.01160E+03  4.14711E+03  1.34057E+03  8.03934E+03 -5.38469E+03  7.60423E+03 -8.86357E+03  2.08198E+03
 -6.24355E+03 -4.87935E+03 -3.10067E+02 -7.45385E+03  5.05971E+03 -3.11044E+03  4.02482E+03  1.29861E+03
  7.99163E+02  4.41078E+03 -4.81917E+03  6.25776E+03 -6.39507E+03  3.69757E+03 -5.75223E+03 -1.23954E+03
 -4.36053E+03 -8.06707E+03  1.69504E+03 -9.09057E+03  7.51084E+03 -5.35040E+03  8.00976E+03  1.58675E+03
  5.74300E+03  6.60591E+03  3.65396E+02  8.62078E+03 -5.91615E+03  5.78090E+03 -5.96425E+03 -5.00590E+02
 -6.74553E+03 -6.41806E+03 -1.09873E+03 -6.53105E+03  3.50729E+03 -5.34073E+03  4.44920E+03 -3.61435E+03
  2.87251E+03  3.01704E+02  1.86874E+02  8.77351E+02  6.49396E+01 -3.78224E+02  3.46604E+02 -3.25769E+03
  5.11235E+03 -1.57554E+03  7.64179E+03  3.98386E+02  7.70959E+03  4.68687E+03  6.39369E+03  9.51140E+03
 -2.07322E+03  1.10250E+04 -9.56216E+03  8.92302E+03 -1.27067E+04  1.29897E+03 -9.95196E+03 -3.59786E+03
 -5.75157E+03 -8.37197E+03 -2.13422E+02 -6.87348E+03  2.17984E+03 -2.66785E+03  2.00478E+03 -2.55249E+03
  1.15737E+03 -1.96818E+03  1.92960E+03 -2.35379E+03  4.16434E+03 -1.55230E+03  4.59180E+03 -4.37285E+02
  5.33852E+03  1.09795E+03  1.74065E+03  4.27176E+03 -1.75345E+03  3.84683E+03 -5.62453E+03  3.66238E+03
 -7.20903E+03 -1.45036E+03 -3.12354E+03 -3.97480E+03  3.01830E+02 -6.40982E+03  4.30423E+03 -6.89173E+03
  7.13415E+03 -3.70857E+03  9.04146E+03  6.31706E+02  6.18897E+03  5.64771E+03  8.60758E+02  8.23005E+03
 -2.87142E+03  7.29714E+03 -4.07574E+03  2.66956E+03 -2.22417E+03 -1.68948E+03 -7.77174E+02 -3.59080E+02
 -4.68476E+02  3.41219E+02 -1.48943E+03  2.18798E+03 -3.15042E+03  1.16081E+03 -5.15722E+03 -5.23870E+02
 -2.25289E+03 -4.41956E+03  1.00613E+03 -6.21175E+03  3.37874E+03 -5.98047E+03  5.28823E+03 -1.92227E+03
  5.35117E+03  2.63363E+03  2.33561E+03  5.05060E+03 -1.31012E+03  6.15028E+03 -4.06335E+03  3.34200E+03
 -5.31105E+03  5.72520E+02 -4.41368E+03 -3.29445E+03 -8.29508E+02 -4.61983E+03  1.96426E+03 -3.24572E+03
  4.20041E+03 -1.69764E+03  2.24142E+03  2.22370E+02  1.23809E+03  1.95653E+03  7.95015E+02  2.04163E+02
  1.42306E+03  4.69874E+02  1.41864E+03  1.54674E+03  1.74629E+03  2.56260E+03  1.55265E+03  3.18917E+03
 -1.57994E+03  4.69544E+03 -3.72718E+03  5.96473E+03 -4.44371E+03  1.19802E+03 -6.11308E+03 -1.07371E+03
 -2.25995E+03 -5.42597E+03  9.43204E+02 -6.34272E+03  2.55567E+03 -3.97870E+03  4.26100E+03 -1.01957E+03
  3.49277E+03  2.08786E+03  1.04626E+03  3.61260E+03 -1.42403E+03  1.75815E+03 -1.90538E+03 -5.52166E+02
 -7.44343E+02 -2.23987E+03  1.16641E+03 -1.93249E+03  2.25210E+03 -1.41764E+03  2.04863E+03  1.77965E+02
  1.15123E+03  3.78337E+02  1.19512E+03 -1.84445E+02 -3.12096E+02  1.62742E+03  2.28807E+03  6.25384E+01
  5.41562E+02  6.85146E+01  2.32622E+03  8.00016E+02  4.93039E+02  3.01763E+03 -5.50549E+02  4.29697E+03
 -2.01721E+03  2.01463E+03 -3.60230E+03  1.13421E+03 -2.93682E+03 -1.09961E+03 -1.00446E+03 -1.83101E+03
  4.93422E+02 -2.14611E+03  1.83512E+03 -6.56023E+02  1.16919E+03  1.65327E+03 -9.83864E+02  1.67284E+03
 -2.45657E+03  6.10140E+02 -1.99414E+03 -2.23482E+03 -1.73207E+03 -3.16853E+03  1.83535E+02 -2.14623E+03
  9.29429E+02 -1.29733E+03  1.41233E+03 -1.90248E+02  1.86521E+03  3.32765E+02  3.95449E+02  1.12720E+03
 -9.55985E+02  4.38049E+02 -1.65294E+03 -1.05214E+03  6.43954E+02 -1.64310E+03  2.29597E+03 -1.31381E+03
  2.23289E+03  5.81302E+02  3.88029E+03  1.84643E+03  1.28920E+03  2.98070E+03 -7.14804E+02  2.03345E+03
 -1.61530E+03  9.10710E+02 -2.23872E+03 -3.98918E+02 -1.13882E+03 -2.30083E+03  5.23042E+02 -1.21908E+03
  2.73601E+03 -8.08259E+02  1.53283E+03  1.06563E+03  7.91675E+02  1.15165E+03  1.83907E+02  1.55358E+03
 -7.01033E+02  1.13915E+03 -3.26459E+02  4.30217E+02  3.10882E+02  6.30137E+02 -9.68521E+02  7.13291E+02
 -9.55707E+02  1.12890E+03 -2.46331E+03  5.07906E+02 -2.35470E+03  2.70823E+02 -3.61186E+03 -1.36489E+03
 -1.65106E+03 -3.85537E+03  1.03906E+03 -4.59457E+03  1.94040E+03 -3.06938E+03  4.81873E+03 -7.56100E+02
  3.62476E+03  6.26294E+02  2.40614E+03  2.79237E+03 -7.95067E+01  2.21572E+03 -1.02255E+03  2.29552E+03
 -1.61406E+03  1.48652E+03 -3.40047E+02 -4.99891E+02 -6.81520E+02  1.73818E+01 -8.31556E+02  2.34924E+02
 -4.79723E+02  2.02656E+02 -5.65112E+02 -1.62621E+02 -1.49899E+02 -3.94487E+02  2.10823E+02 -1.44290E+03
  1.54549E+03 -4.55409E+02  1.36501E+03  8.41403E+01  1.96508E+03  1.38421E+03 -2.29241E+01  2.70625E+03
 -1.08661E+03  3.67346E+03 -2.59493E+03  2.00434E+03 -2.49298E+03 -3.97492E+02 -1.79912E+03 -1.73980E+03
 -1.37700E+03 -2.44556E+03  6.40431E+02 -2.56670E+03  1.52478E+03 -9.98902E+02  1.07964E+03 -9.17395E+01
  1.52202E+03  8.11260E+02 -8.05302E+02  2.90620E+02 -9.34525E+02 -4.64847E+02 -6.06746E+02 -6.04095E+02
  8.63133E+02 -1.49197E+02  5.70816E+02  6.67565E+02  2.38699E+02  1.49787E+03  6.10198E+02  1.15283E+03
 -1.17805E+03  9.20298E+02 -1.04265E+03 -2.75174E+02 -1.23116E+03 -1.00552E+03  2.05091E+02 -2.30431E+03
  1.04552E+03 -2.00988E+03  1.71162E+03 -1.60215E+02  1.79408E+03 -3.59102E+02  1.01074E+03  1.36302E+03
  8.33255E+02  1.22918E+03 -5.65477E+02  1.33163E+03 -7.81430E+02  4.64575E+02 -4.50444E+02  4.28639E+02
 -6.29588E+02 -5.05130E+01 -6.97069E+02  4.82533E+02 -1.09621E+03  1.96610E+02 -1.56626E+03 -5.51805E+02
 -1.79217E+03 -3.50953E+02 -7.76498E+02 -2.15537E+03  1.19839E+03 -2.42928E+03  1.77068E+03 -7.16496E+02
  1.11540E+03  1.67558E+02 -1.02437E+02  4.56938E+02 -7.79147E+02  1.52699E+03 -8.72197E+02  9.17271E+02
