 $NMID ID='MM_0lb_SNR400_15hz_g55_30.RAW', FMTDAT='(8E13.5)'
 TRAMP=1., VOLUME=1. $END
  3.09663E+05  3.83763E+02  3.37555E+05  2.50794E+05  8.42634E+04  3.38472E+05 -1.32736E+05  2.50653E+05
 -1.90226E+05  8.32280E+04 -1.11939E+05 -3.26419E+04  7.26859E+02 -5.02562E+04  5.37035E+04 -9.84281E+01
  3.57441E+04  5.26197E+04 -1.69823E+04  7.55332E+04 -6.03950E+04  6.33612E+04 -8.41764E+04  3.23601E+04
 -8.17268E+04 -1.12289E+04 -5.75932E+04 -5.19608E+04 -1.52833E+04 -7.00104E+04  2.71861E+04 -4.58708E+04
  3.95472E+04  3.73999E+03  1.55489E+04  4.74932E+04 -3.41488E+04  4.75294E+04 -6.61803E+04 -3.70224E+01
 -5.34832E+04 -5.67407E+04 -6.57526E+03 -7.70354E+04  3.37609E+04 -5.52602E+04  4.82963E+04 -1.71996E+04
  4.31314E+04  1.10498E+04  3.23897E+04  2.55317E+04  1.64513E+04  2.89922E+04 -5.22876E+03  2.75238E+04
 -2.21371E+04  1.23256E+04 -1.82514E+04 -4.39299E+03  6.14387E+03 -7.15860E+03  2.20648E+04  1.21193E+04
  7.93853E+03  3.56059E+04 -3.16123E+04  3.53952E+04 -6.38168E+04  2.59691E+03 -5.69910E+04 -4.32788E+04
 -1.17026E+04 -6.36440E+04  4.00448E+04 -4.59915E+04  5.90647E+04 -2.13134E+03  3.40082E+04  3.27177E+04
 -5.49223E+03  3.57901E+04 -3.01806E+04  1.61944E+04 -3.02061E+04 -4.05976E+03 -1.68234E+04 -1.07581E+04
 -8.81935E+03 -1.30323E+04 -8.48032E+02 -1.78958E+04  7.20065E+03 -2.35308E+04  1.54412E+04 -1.37364E+04
  1.16127E+04  5.36276E+03 -7.56645E+03  1.25129E+04 -2.12534E+04 -4.24282E+03 -8.50186E+03 -3.32791E+04
  2.29208E+04 -4.29490E+04  4.82365E+04 -1.95829E+04  4.52207E+04  1.92998E+04  1.56280E+04  4.44617E+04
 -1.55330E+04  3.30664E+04 -2.53555E+04  2.24218E+03 -1.06826E+04 -2.80805E+04  2.12580E+04 -3.40728E+04
  4.13267E+04 -9.27238E+03  3.53813E+04  2.29923E+04  1.81444E+04  4.69559E+04 -8.30821E+03  5.05749E+04
 -3.22229E+04  3.41020E+04 -4.18931E+04  9.15016E+03 -4.22221E+04 -1.66539E+04 -2.35231E+04 -3.78630E+04
  7.11467E+03 -3.78181E+04  3.12190E+04 -1.46101E+04  2.94045E+04  1.08185E+04  3.64088E+03  1.91758E+04
 -1.31389E+04  8.26851E+03 -9.85881E+03 -7.97854E+03  5.53383E+03 -1.10511E+04  1.78680E+04  6.13074E+03
  1.38515E+04  2.21866E+04 -6.32793E+03  2.47949E+04 -2.24143E+04  1.15694E+04 -2.83734E+04 -4.43273E+03
 -2.01070E+04 -1.71769E+04 -8.51714E+03 -2.01599E+04  4.17921E+03 -1.93127E+04  1.59633E+04 -1.79152E+04
  2.55281E+04 -1.22355E+04  3.20827E+04  3.02554E+03  2.33618E+04  1.99363E+04  4.63824E+03  3.69294E+04
 -1.80174E+04  2.98057E+04 -2.80868E+04  1.02241E+04 -2.13563E+04 -9.79483E+03 -4.49022E+03 -1.34446E+04
  1.52436E+03 -3.27761E+03 -4.90926E+03  6.50004E+03 -1.62218E+04  5.70021E+03 -1.66358E+04 -6.18100E+03
 -1.01974E+04 -1.93888E+04  4.56825E+03 -2.23364E+04  1.48909E+04 -1.65321E+04  1.79725E+04 -1.72335E+03
  1.16287E+04  1.33543E+04 -8.20362E+02  1.92552E+04 -1.28756E+04  1.12966E+04 -1.89682E+04 -3.92170E+03
 -1.38363E+04 -1.71918E+04 -2.30564E+03 -2.32322E+04  1.03975E+04 -1.90656E+04  1.86690E+04 -8.87615E+03
  1.77287E+04  6.89540E+02  1.24633E+04  4.34999E+03  6.29389E+03  8.16583E+02  9.62947E+03 -1.46664E+03
  1.73106E+04  2.76747E+03  1.91039E+04  1.48537E+04  1.24462E+04  3.02607E+04 -2.95425E+03  3.41417E+04
 -2.02295E+04  2.67008E+04 -3.07406E+04  1.35630E+04 -3.33058E+04 -1.94075E+03 -2.69169E+04 -1.90108E+04
 -1.20549E+04 -2.73661E+04  9.49509E+03 -2.37435E+04  2.07018E+04 -1.25794E+04  1.92231E+04  5.43629E+03
  6.61812E+03  1.34755E+04 -8.46549E+03  1.19356E+04 -1.59628E+04  2.13692E+03 -1.23095E+04 -1.01375E+04
  1.07857E+02 -1.46137E+04  7.47112E+03 -1.13103E+04  9.70202E+03 -1.21403E+03  2.22040E+03  6.67896E+03
 -7.16652E+03  2.28643E+03 -5.50674E+03 -5.60036E+03 -1.04591E+03 -1.32529E+04  9.94878E+03 -1.38907E+04
  1.56882E+04 -7.59249E+03  1.78603E+04  2.89463E+03  1.43667E+04  1.28375E+04  7.50639E+03  2.00759E+04
 -2.72623E+03  2.19380E+04 -1.35171E+04  1.34276E+04 -1.52811E+04  2.89132E+03 -1.09655E+04 -3.02170E+03
 -5.18777E+03 -4.72572E+03 -7.91404E+02  1.80175E+03 -2.69305E+03  1.98101E+03 -4.86290E+03  4.99825E+03
 -1.03496E+04 -5.76114E+02 -1.11872E+04 -8.28713E+03 -4.84421E+03 -1.44505E+04  4.23210E+03 -1.16734E+04
  9.43508E+03 -3.94751E+03  6.92660E+03  2.55541E+03  4.56065E+02  4.29388E+03 -4.48264E+03 -4.02480E+02
 -5.26572E+03 -7.07857E+03 -9.69667E+02 -9.99789E+03  5.42829E+03 -1.11957E+04  1.38750E+04 -4.81378E+03
  1.62272E+04  9.40436E+02  1.18771E+04  8.51766E+03  2.91052E+03  1.21721E+04 -6.25580E+03  1.09381E+04
 -9.15862E+03  3.67649E+03 -3.92113E+03 -2.06526E+03  2.41866E+03 -2.50670E+03  6.44393E+03 -7.39668E+02
  5.03671E+03  4.84743E+03  9.28530E+02  8.59508E+03 -6.24577E+03  8.21661E+03 -1.00082E+04  1.94300E+03
 -6.55696E+03 -5.26964E+03  1.01940E+02 -9.28743E+03  5.75331E+03 -4.42545E+03  5.50827E+03  1.85088E+03
  1.52196E+03  5.55619E+03 -4.67085E+03  6.98917E+03 -7.71227E+03  3.39558E+03 -7.72326E+03 -2.22925E+03
 -4.63881E+03 -8.93672E+03  2.00762E+03 -1.04073E+04  9.24759E+03 -6.76964E+03  9.82723E+03  1.96502E+03
  6.72815E+03  8.03325E+03 -7.88362E+01  9.53501E+03 -7.38092E+03  5.76198E+03 -7.49369E+03 -3.81557E+02
 -7.47132E+03 -7.14975E+03 -1.28958E+03 -7.19824E+03  3.62239E+03 -6.72004E+03  4.49733E+03 -2.92105E+03
  2.98019E+03  1.36601E+03 -4.18629E+01  1.30024E+03 -4.87323E+02 -1.42137E+03  1.18909E+03 -3.48317E+03
  6.32742E+03 -2.19238E+03  8.39866E+03  1.25115E+03  9.16647E+03  5.76127E+03  6.27169E+03  1.12730E+04
 -2.32296E+03  1.31015E+04 -1.20470E+04  1.03692E+04 -1.49881E+04  1.67700E+03 -1.15621E+04 -4.16604E+03
 -6.42637E+03 -9.94726E+03 -9.55238E+02 -8.34261E+03  2.87219E+03 -3.81250E+03  2.27888E+03 -3.03600E+03
  1.78573E+03 -2.00900E+03  2.38307E+03 -2.78841E+03  4.42923E+03 -1.73463E+03  5.43747E+03 -3.23833E+02
  6.17009E+03  1.43096E+03  2.71127E+03  5.31164E+03 -2.73040E+03  5.49356E+03 -6.21326E+03  4.09430E+03
 -8.39358E+03 -1.14848E+03 -4.32436E+03 -5.20277E+03  2.95615E+02 -8.23735E+03  4.59531E+03 -9.24961E+03
  8.48035E+03 -5.38107E+03  1.02395E+04  8.94584E+02  7.49249E+03  7.44586E+03  1.19946E+03  9.92953E+03
 -3.46889E+03  8.33715E+03 -5.21690E+03  2.60427E+03 -3.60417E+03 -9.69959E+02 -1.45531E+03 -8.77818E+02
 -7.22095E+02  9.76339E+00 -1.43865E+03  1.97209E+03 -2.90526E+03  2.06555E+03 -5.88563E+03 -7.80725E+02
 -2.94097E+03 -6.06856E+03  5.17763E+02 -7.73818E+03  4.13000E+03 -6.95895E+03  6.94385E+03 -2.46031E+03
  6.74648E+03  3.26437E+03  3.55895E+03  5.60860E+03 -1.29206E+03  6.62941E+03 -5.27574E+03  4.76984E+03
 -6.03856E+03 -2.82254E+02 -5.15894E+03 -4.25447E+03 -1.14597E+03 -5.70202E+03  3.21504E+03 -3.75520E+03
  4.63169E+03 -1.59683E+03  3.91208E+03  6.55060E+02  8.25300E+02  2.18105E+03  5.90582E+02  1.17033E+03
  2.08090E+03  6.56219E+02  1.71061E+03  1.03561E+03  2.12504E+03  2.49472E+03  2.15892E+03  3.13706E+03
 -1.36249E+03  5.39978E+03 -4.48605E+03  6.13868E+03 -5.97710E+03  1.82422E+03 -6.66934E+03 -1.69314E+03
 -3.21196E+03 -6.47184E+03  1.10427E+03 -8.50511E+03  3.81127E+03 -5.05617E+03  5.56161E+03 -9.87357E+02
  4.53326E+03  3.36853E+03  9.96816E+02  3.64581E+03 -1.46734E+03  2.68658E+03 -2.24345E+03 -2.20887E+02
 -1.13386E+03 -3.05200E+03  1.52312E+03 -2.62321E+03  2.55070E+03 -1.52361E+03  3.02333E+03  3.55543E+02
  1.53175E+03  7.20603E+02  8.77094E+02  1.55849E+02 -4.36577E+02  9.09484E+02  8.97258E+02 -5.79585E+02
  4.53365E+02 -9.52576E+01  2.89083E+03  1.81280E+03  1.31588E+03  4.50230E+03 -9.70742E+02  5.01429E+03
 -3.11518E+03  2.65511E+03 -3.61694E+03  2.61466E+02 -4.15921E+03 -1.67227E+03 -6.84948E+02 -2.29927E+03
  4.01165E+02 -2.25875E+03  1.61763E+03 -1.16010E+03  1.77357E+03  1.18013E+03 -8.66752E+02  1.94216E+03
 -2.82113E+03  8.01918E+02 -2.50366E+03 -1.79805E+03 -1.87765E+03 -3.68164E+03  7.65441E+02 -3.60251E+03
  1.56700E+03 -1.65339E+03  2.11911E+03  2.51968E+02  2.02606E+03  3.62336E+02  6.79010E+02  1.45715E+03
 -8.04610E+02  1.78360E+02 -1.81736E+03 -1.04110E+03  5.57195E+02 -2.95079E+03  2.74446E+03 -1.43440E+03
  3.22742E+03  2.79837E+02  4.19275E+03  2.04977E+03  1.51377E+03  3.36781E+03 -1.00672E+03  3.43873E+03
 -2.70381E+03  1.04855E+03 -3.75119E+03 -6.26359E+02 -1.49991E+03 -2.23411E+03  7.49262E+02 -1.98688E+03
  2.38745E+03 -1.69099E+03  1.77845E+03  7.26434E+02  2.91032E+02  2.60027E+03  2.13218E+02  1.90560E+03
 -9.45123E+02  1.60055E+03 -1.28715E+03  8.04378E+02 -2.24348E+01  3.74082E+02 -1.23294E+03  1.22995E+03
 -1.01948E+03  1.76673E+03 -3.12530E+03  1.14741E+03 -4.01878E+03  2.18346E+01 -4.11459E+03 -2.15064E+03
 -1.90718E+03 -5.19633E+03  7.77089E+02 -5.55790E+03  3.24365E+03 -3.87568E+03  5.45711E+03 -1.46413E+03
  5.07432E+03  5.71566E+02  2.45219E+03  3.42128E+03  2.71652E+01  3.34499E+03 -1.23447E+03  2.45875E+03
 -1.30183E+03  9.15880E+02 -4.92622E+02  8.29110E+01 -7.45421E+02  2.78113E+01 -8.27249E+02  7.72031E+01
 -1.23457E+03 -1.58306E+02 -9.65752E+02  2.33701E+02  4.56188E+01 -8.67622E+02 -4.41869E+02 -1.49397E+03
  1.35221E+03 -1.05493E+03  1.09898E+03  5.76901E+01  2.32296E+03  1.79531E+03  4.44041E+02  3.44273E+03
 -8.99497E+02  4.75901E+03 -3.62306E+03  2.28764E+03 -3.52684E+03 -5.90643E+02 -2.30460E+03 -2.29864E+03
 -1.84876E+03 -3.31857E+03  6.98286E+02 -3.17748E+03  1.39687E+03 -9.42181E+02  2.06712E+03 -3.44902E+02
  2.32427E+03  1.51935E+03  1.39445E+02 -8.92886E+01 -1.00317E+03 -1.35866E+02  3.85308E+02 -6.13847E+02
  1.30669E+03 -6.63600E+02  5.33992E+02  1.05903E+03  6.74194E+02  1.12709E+03  3.23910E+02  1.60251E+03
 -1.32764E+03  1.27095E+03 -1.46644E+03 -2.82022E+01 -1.35357E+03 -2.13494E+03  4.67926E+02 -2.20146E+03
  1.23772E+03 -2.46623E+03  1.05626E+03 -5.22774E+02  2.19455E+03 -3.87201E+02  1.18519E+03  1.77836E+03
  4.98621E+02  1.97135E+03 -5.89914E+02  8.07726E+02 -1.35913E+03  1.30843E+03 -5.58370E+02  2.73460E+02
  1.11755E+01  4.21629E+01 -5.65394E+02  1.72552E+02 -7.26115E+02  3.49945E+01 -1.68270E+03 -1.89276E+02
 -1.81125E+03 -1.48285E+02 -4.60174E+02 -1.89499E+03  1.00631E+03 -2.61994E+03  1.74311E+03 -6.97558E+02
  1.44022E+03  3.61192E+00  2.37151E+02  6.46957E+02  5.40714E+02  1.78488E+03 -1.17735E+03  1.07683E+03
