 $NMID ID='MM_0lb_SNR400_12hz_g60_38.RAW', FMTDAT='(8E13.5)'
 TRAMP=1., VOLUME=1. $END
  3.10220E+05  1.66867E+02  3.37118E+05  2.51144E+05  8.48767E+04  3.38185E+05 -1.32606E+05  2.51964E+05
 -1.90938E+05  8.36390E+04 -1.12842E+05 -3.20538E+04  3.66346E+02 -5.06245E+04  5.43600E+04  1.91200E+02
  3.60185E+04  5.35358E+04 -1.73228E+04  7.61509E+04 -6.09035E+04  6.39536E+04 -8.51016E+04  3.25221E+04
 -8.23627E+04 -1.14148E+04 -5.73961E+04 -5.15861E+04 -1.49731E+04 -7.08188E+04  2.79679E+04 -4.59667E+04
  4.03844E+04  3.77715E+03  1.60286E+04  4.84972E+04 -3.43360E+04  4.77919E+04 -6.82413E+04  2.35533E+02
 -5.51858E+04 -5.80085E+04 -7.26320E+03 -7.80978E+04  3.47055E+04 -5.64356E+04  4.93636E+04 -1.76704E+04
  4.50325E+04  1.15692E+04  3.34057E+04  2.59544E+04  1.64498E+04  3.04700E+04 -4.64452E+03  2.83636E+04
 -2.26876E+04  1.16699E+04 -1.84338E+04 -5.44081E+03  6.38434E+03 -7.28172E+03  2.38881E+04  1.31221E+04
  6.84773E+03  3.78121E+04 -3.35162E+04  3.67790E+04 -6.56231E+04  3.87106E+03 -5.81595E+04 -4.41177E+04
 -1.23244E+04 -6.49051E+04  4.07943E+04 -4.68045E+04  6.01025E+04 -2.99395E+03  3.58911E+04  3.32932E+04
 -5.53521E+03  3.84155E+04 -3.13311E+04  1.83321E+04 -3.18602E+04 -3.04726E+03 -1.83053E+04 -1.19912E+04
 -9.31894E+03 -1.42235E+04 -3.36922E+02 -1.96010E+04  7.79993E+03 -2.31220E+04  1.57924E+04 -1.25065E+04
  1.14004E+04  5.62590E+03 -1.05851E+04  1.35144E+04 -2.22550E+04 -5.50232E+03 -8.56922E+03 -3.63098E+04
  2.45203E+04 -4.59737E+04  5.11577E+04 -2.07482E+04  4.79147E+04  2.00626E+04  1.61892E+04  4.55710E+04
 -1.63531E+04  3.50075E+04 -2.73914E+04  2.46611E+03 -1.11527E+04 -2.94924E+04  2.13181E+04 -3.55399E+04
  4.29614E+04 -1.01508E+04  3.96695E+04  2.43259E+04  2.10726E+04  4.90624E+04 -8.43983E+03  5.43605E+04
 -3.39463E+04  3.70535E+04 -4.56654E+04  1.10264E+04 -4.63410E+04 -1.82116E+04 -2.50777E+04 -4.12663E+04
  7.34491E+03 -3.95796E+04  3.32189E+04 -1.53503E+04  3.10422E+04  1.12734E+04  5.60249E+03  2.01211E+04
 -1.31026E+04  9.69457E+03 -1.05001E+04 -7.51292E+03  5.44935E+03 -1.19480E+04  1.89792E+04  5.28832E+03
  1.40439E+04  2.24812E+04 -5.54323E+03  2.62399E+04 -2.34273E+04  1.29665E+04 -2.99655E+04 -3.87739E+03
 -2.35967E+04 -1.76051E+04 -9.67597E+03 -2.39820E+04  3.50340E+03 -2.32487E+04  1.81343E+04 -2.16411E+04
  3.03098E+04 -1.35197E+04  3.59662E+04  3.72629E+03  2.64909E+04  2.36591E+04  4.40766E+03  3.99221E+04
 -1.84784E+04  3.26401E+04 -3.02815E+04  1.11080E+04 -2.15624E+04 -1.00080E+04 -4.26209E+03 -1.25302E+04
  8.32179E+02 -1.86519E+03 -6.73652E+03  7.61219E+03 -1.82355E+04  5.27110E+03 -1.79465E+04 -9.67860E+03
 -1.07646E+04 -2.15275E+04  5.70148E+03 -2.53017E+04  1.69052E+04 -1.90043E+04  2.11498E+04 -1.15726E+03
  1.38991E+04  1.44523E+04 -9.80764E+02  2.16682E+04 -1.57530E+04  1.21566E+04 -2.20802E+04 -4.81402E+03
 -1.63503E+04 -1.88030E+04 -2.37413E+03 -2.55409E+04  1.17010E+04 -2.13939E+04  2.16095E+04 -1.06540E+04
  1.96059E+04 -7.91184E+01  1.50118E+04  5.58221E+03  7.40543E+03  1.56591E+03  1.13021E+04 -2.23340E+03
  2.10281E+04  3.66952E+03  2.30122E+04  1.72729E+04  1.55151E+04  3.44264E+04 -3.41424E+03  4.03324E+04
 -2.28962E+04  3.37078E+04 -3.84668E+04  1.73168E+04 -4.07942E+04 -3.10766E+03 -3.30660E+04 -2.36543E+04
 -1.37049E+04 -3.37056E+04  1.13035E+04 -2.92378E+04  2.53982E+04 -1.48526E+04  2.24467E+04  7.66772E+03
  8.04739E+03  1.73859E+04 -1.14063E+04  1.40628E+04 -1.82993E+04  2.51688E+03 -1.42306E+04 -1.21719E+04
 -9.03845E+02 -1.75808E+04  9.75074E+03 -1.30108E+04  1.21642E+04 -1.84762E+03  3.06314E+03  8.49834E+03
 -7.42298E+03  2.98815E+03 -7.92757E+03 -6.67408E+03 -1.42107E+03 -1.63764E+04  1.08578E+04 -1.75015E+04
  2.02353E+04 -1.01169E+04  2.29132E+04  3.05796E+03  2.00009E+04  1.70371E+04  9.03335E+03  2.53292E+04
 -5.04638E+03  2.74923E+04 -1.75240E+04  1.71989E+04 -1.97431E+04  3.39443E+03 -1.35083E+04 -5.01082E+03
 -6.62700E+03 -6.82005E+03 -1.48695E+03  2.44326E+02 -2.83687E+03  3.50902E+03 -6.74419E+03  4.71363E+03
 -1.26573E+04 -7.10841E+02 -1.31481E+04 -1.09624E+04 -5.71544E+03 -1.78466E+04  5.63287E+03 -1.44671E+04
  1.10484E+04 -5.42764E+03  8.49268E+03  3.98123E+03 -8.89784E+02  5.83952E+03 -7.08949E+03 -7.99373E+00
 -5.98556E+03 -8.56809E+03 -9.27769E+02 -1.37360E+04  8.17546E+03 -1.38166E+04  1.68721E+04 -7.64833E+03
  2.07710E+04  1.60257E+03  1.51508E+04  1.22504E+04  2.64151E+03  1.59868E+04 -8.51448E+03  1.38668E+04
 -1.10612E+04  4.07172E+03 -6.75240E+03 -2.44487E+03  2.03256E+03 -3.01636E+03  7.33427E+03 -6.16581E+02
  6.12411E+03  5.92288E+03  7.57504E+02  1.10991E+04 -8.00594E+03  1.06496E+04 -1.32630E+04  2.47799E+03
 -8.81956E+03 -7.66951E+03  7.23529E+02 -1.09969E+04  6.79344E+03 -6.29678E+03  7.74887E+03  2.45276E+03
  9.76806E+02  8.22576E+03 -6.85245E+03  9.51324E+03 -1.15177E+04  4.28615E+03 -1.08541E+04 -3.54756E+03
 -6.58151E+03 -1.34102E+04  2.77462E+03 -1.54476E+04  1.34063E+04 -9.36055E+03  1.41234E+04  1.87894E+03
  8.50806E+03  1.16063E+04 -1.13342E+03  1.33471E+04 -9.63407E+03  7.35798E+03 -1.05916E+04 -5.01368E+02
 -8.98296E+03 -8.59185E+03 -2.26715E+03 -9.85532E+03  4.81652E+03 -8.01832E+03  6.37469E+03 -3.81112E+03
  4.52886E+03  1.58496E+03 -7.39682E+02  1.76958E+03 -6.09482E+02 -2.57763E+03  2.02648E+03 -5.74297E+03
  9.82364E+03 -3.90030E+03  1.26932E+04  1.52090E+03  1.26824E+04  9.36792E+03  8.42266E+03  1.63985E+04
 -4.37573E+03  1.93500E+04 -1.59335E+04  1.40742E+04 -2.13780E+04  2.68998E+03 -1.69390E+04 -7.55863E+03
 -9.24321E+03 -1.34068E+04 -1.53748E+02 -1.18383E+04  4.72354E+03 -5.84157E+03  4.15189E+03 -4.80625E+03
  3.00526E+03 -3.20778E+03  4.66544E+03 -2.85450E+03  4.70850E+03 -2.40767E+03  6.74064E+03 -1.39726E+03
  8.05454E+03  2.08754E+03  4.76200E+03  7.64693E+03 -1.71135E+03  7.98215E+03 -9.03017E+03  6.54622E+03
 -1.20045E+04 -9.16556E+02 -6.54319E+03 -8.05183E+03 -1.18746E+03 -1.19624E+04  6.61138E+03 -1.22668E+04
  1.22416E+04 -7.21182E+03  1.51213E+04  2.14810E+03  1.14141E+04  1.02585E+04  1.77334E+03  1.40192E+04
 -5.69142E+03  1.12237E+04 -8.34680E+03  3.14792E+03 -5.87799E+03 -1.26232E+03 -1.66811E+03 -1.84532E+03
 -6.02690E+02 -8.68040E+00 -1.64620E+03  2.54998E+03 -5.01915E+03  2.69905E+03 -8.84317E+03 -1.64121E+03
 -5.42565E+03 -7.90186E+03 -1.82287E+02 -1.11362E+04  6.87474E+03 -1.05176E+04  1.09204E+04 -2.82883E+03
  1.09858E+04  4.58380E+03  4.97231E+03  8.53406E+03 -1.79983E+03  1.14657E+04 -7.63720E+03  7.22815E+03
 -1.00766E+04  9.97033E+02 -7.98160E+03 -6.58365E+03 -1.29200E+03 -8.71618E+03  4.76916E+03 -7.14099E+03
  7.49983E+03 -2.79823E+03  4.31994E+03  1.85391E+03  1.94549E+03  3.47681E+03  1.32332E+03  8.81825E+02
  2.58858E+03  8.72392E+02  3.51866E+03  1.20016E+03  2.73358E+03  4.59250E+03  2.94280E+03  5.48278E+03
 -2.20283E+03  8.51368E+03 -8.10132E+03  8.99821E+03 -1.10416E+04  2.67108E+03 -1.15861E+04 -4.31696E+03
 -5.71876E+03 -1.13113E+04  1.18351E+03 -1.20399E+04  6.90998E+03 -7.61260E+03  8.78096E+03 -2.17783E+03
  5.99394E+03  3.96866E+03  1.77619E+03  5.53420E+03 -3.33024E+03  3.76518E+03 -4.25800E+03 -7.14931E+02
 -1.94040E+03 -4.14262E+03  2.20848E+03 -4.58667E+03  3.98355E+03 -2.15983E+03  5.03818E+03  1.94828E+03
  2.96126E+03  1.87011E+03  1.01799E+03  1.12765E+03 -8.05916E+02  2.40666E+03  1.86064E+03 -3.66430E+02
  9.35150E+02 -7.33941E+02  4.28294E+03  1.78424E+03  2.34608E+03  6.17696E+03 -1.11813E+03  7.43945E+03
 -6.24519E+03  4.69001E+03 -6.55441E+03  1.25906E+03 -5.48177E+03 -1.99778E+03 -2.15823E+03 -4.16815E+03
 -1.13005E+02 -4.09950E+03  2.53981E+03 -1.66785E+03  3.62515E+03  2.17495E+03 -1.65156E+03  3.32110E+03
 -4.19650E+03  2.18642E+03 -5.15235E+03 -3.30094E+03 -2.97245E+03 -6.75448E+03  5.62185E+02 -6.10504E+03
  3.22800E+03 -3.74633E+03  4.49032E+03 -7.71245E+02  3.16970E+03  9.27309E+02  1.83756E+02  3.19101E+03
 -1.25121E+03  8.71617E+02 -2.18255E+03 -2.20486E+03  1.46198E+03 -3.55692E+03  4.96553E+03 -3.21908E+03
  6.14446E+03  1.02242E+03  6.48243E+03  3.93749E+03  2.30401E+03  6.27646E+03 -1.80942E+03  6.62941E+03
 -5.60311E+03  1.81318E+03 -5.66091E+03 -7.52208E+02 -3.22459E+03 -4.23233E+03  1.22030E+03 -4.29147E+03
  3.69995E+03 -2.27824E+03  3.51411E+03  1.83621E+03  2.18050E+03  3.44300E+03 -7.39084E+02  3.12268E+03
 -1.53148E+03  2.74556E+03 -1.47830E+03  6.58253E+02 -7.80419E+02  1.17424E+03 -1.67732E+03  7.11368E+02
 -1.81004E+03  3.13236E+03 -4.78121E+03  2.24521E+03 -6.66748E+03 -2.74872E+02 -7.08897E+03 -4.14704E+03
 -3.46912E+03 -8.27354E+03  1.86714E+03 -9.78817E+03  6.06259E+03 -7.67813E+03  9.22393E+03 -2.96556E+03
  9.04283E+03  1.41028E+03  5.03889E+03  6.26912E+03  2.33735E+02  6.42160E+03 -3.09988E+03  4.74598E+03
 -3.78459E+03  1.30755E+03 -2.30486E+03 -3.42496E+01 -7.75971E+02 -2.53277E+02 -8.61786E+02 -3.61615E+02
 -2.26342E+03  2.38882E+02 -1.89115E+03 -8.67837E+01 -7.99754E+01 -1.67843E+03 -8.36565E+01 -2.43775E+03
  2.92040E+03 -1.68138E+03  3.30045E+03 -3.43173E+02  4.68076E+03  3.46610E+03  1.07407E+03  6.23042E+03
 -3.19086E+03  7.40007E+03 -6.44934E+03  4.35480E+03 -7.54619E+03 -8.66257E+02 -5.26879E+03 -4.90077E+03
 -2.32176E+03 -6.73695E+03  1.77264E+03 -6.02570E+03  3.56732E+03 -3.24996E+03  3.80302E+03  3.51826E+02
  2.48367E+03  2.37881E+03  1.53841E+02  1.49799E+03 -1.23370E+03  3.14640E+02 -2.27810E+02 -1.04867E+03
  1.27382E+03 -5.61971E+01  2.38472E+03  1.05701E+03  1.08698E+03  2.66412E+03  5.99527E+02  3.53413E+03
 -2.87425E+03  2.82989E+03 -3.85093E+03  1.16454E+03 -3.33771E+03 -2.94777E+03 -1.16730E+02 -5.23697E+03
  3.35203E+03 -4.57650E+03  3.93218E+03 -1.01631E+03  4.75680E+03  4.86262E+02  1.80593E+03  3.79123E+03
  4.86502E+02  4.16973E+03 -8.90295E+02  3.20987E+03 -2.47150E+03  1.85616E+03 -2.15552E+03  6.49962E+02
 -7.95623E+02 -1.40823E+02 -1.33350E+03  3.04677E+02 -1.64220E+03  8.33021E+02 -3.35730E+03 -7.15084E+02
 -2.84983E+03 -9.51096E+02 -1.49643E+03 -3.95257E+03  2.27709E+03 -4.24286E+03  3.51199E+03 -2.07892E+03
  3.32305E+03  8.94447E+01  1.39980E+03  1.50818E+03 -4.15165E+02  3.69043E+03 -2.73624E+03  2.35797E+03
