 $NMID ID='MM_0lb_SNR400_10hz_g60_9.RAW', FMTDAT='(8E13.5)'
 TRAMP=1., VOLUME=1. $END
  3.09810E+05  5.88302E+02  3.37896E+05  2.50693E+05  8.45011E+04  3.37873E+05 -1.32887E+05  2.51949E+05
 -1.90101E+05  8.36702E+04 -1.12324E+05 -3.17767E+04  5.05648E+02 -5.06272E+04  5.42204E+04 -6.53227E+02
  3.53133E+04  5.28168E+04 -1.60728E+04  7.60801E+04 -6.18920E+04  6.45616E+04 -8.55921E+04  3.22994E+04
 -8.24497E+04 -1.18287E+04 -5.85937E+04 -5.22805E+04 -1.60708E+04 -7.11174E+04  2.78146E+04 -4.71338E+04
  4.12695E+04  4.09306E+03  1.66605E+04  4.84040E+04 -3.46414E+04  4.79886E+04 -6.85929E+04 -6.32545E+02
 -5.47081E+04 -5.71731E+04 -6.78139E+03 -7.88670E+04  3.50164E+04 -5.69844E+04  4.98931E+04 -1.77255E+04
  4.56124E+04  1.20588E+04  3.26001E+04  2.71812E+04  1.61290E+04  3.06051E+04 -5.88733E+03  2.78794E+04
 -2.25039E+04  1.18536E+04 -1.76332E+04 -6.08136E+03  7.83037E+03 -8.09866E+03  2.33074E+04  1.28063E+04
  7.33310E+03  3.76643E+04 -3.35206E+04  3.68721E+04 -6.57089E+04  1.82671E+03 -5.91581E+04 -4.43396E+04
 -1.30384E+04 -6.56008E+04  4.21203E+04 -4.79382E+04  6.11289E+04 -2.58641E+03  3.71867E+04  3.48162E+04
 -5.90502E+03  3.94352E+04 -3.18558E+04  1.88848E+04 -3.29235E+04 -3.12024E+03 -1.87067E+04 -1.18498E+04
 -9.27470E+03 -1.47753E+04  1.73733E+02 -2.03025E+04  8.11545E+03 -2.31586E+04  1.58670E+04 -1.19030E+04
  1.03899E+04  6.66628E+03 -1.13182E+04  1.31861E+04 -2.31616E+04 -6.33403E+03 -7.86823E+03 -3.78260E+04
  2.52348E+04 -4.71095E+04  5.14502E+04 -2.11452E+04  4.88914E+04  2.06343E+04  1.71157E+04  4.72509E+04
 -1.56978E+04  3.60510E+04 -2.78948E+04  2.36073E+03 -1.23358E+04 -2.97319E+04  2.17472E+04 -3.76094E+04
  4.53676E+04 -1.18015E+04  4.01340E+04  2.51810E+04  2.19821E+04  5.10195E+04 -8.60545E+03  5.65132E+04
 -3.49060E+04  3.95385E+04 -4.82709E+04  1.07730E+04 -4.73326E+04 -1.79854E+04 -2.57609E+04 -4.24789E+04
  8.29797E+03 -4.18895E+04  3.38542E+04 -1.74221E+04  3.22770E+04  1.08922E+04  5.63818E+03  2.09669E+04
 -1.44050E+04  9.74643E+03 -1.14128E+04 -7.97985E+03  5.84914E+03 -1.10751E+04  1.84796E+04  5.11684E+03
  1.50244E+04  2.23008E+04 -5.52855E+03  2.66338E+04 -2.33482E+04  1.37641E+04 -3.09477E+04 -1.98672E+03
 -2.59564E+04 -1.90283E+04 -1.18341E+04 -2.45242E+04  4.61941E+03 -2.55949E+04  2.00154E+04 -2.29478E+04
  3.18721E+04 -1.43133E+04  3.78968E+04  4.97848E+03  2.68041E+04  2.43011E+04  4.71642E+03  4.17729E+04
 -2.03507E+04  3.40606E+04 -2.98522E+04  1.19795E+04 -2.30418E+04 -1.03335E+04 -5.56980E+03 -1.30080E+04
  8.91702E+02 -1.04703E+03 -7.65311E+03  8.23346E+03 -1.95054E+04  5.18075E+03 -2.01539E+04 -1.02904E+04
 -1.20578E+04 -2.42692E+04  5.90401E+03 -2.70640E+04  1.96322E+04 -1.95759E+04  2.26574E+04 -2.16801E+03
  1.44519E+04  1.62781E+04 -1.07159E+03  2.29681E+04 -1.66585E+04  1.31792E+04 -2.33940E+04 -4.30362E+03
 -1.73148E+04 -2.08965E+04 -1.99063E+03 -2.89124E+04  1.25118E+04 -2.30967E+04  2.32631E+04 -1.13691E+04
  2.19850E+04 -1.50855E+02  1.51364E+04  4.99014E+03  9.42089E+03  1.94897E+03  1.22225E+04 -1.91772E+03
  2.20531E+04  2.93782E+03  2.52438E+04  1.83402E+04  1.73314E+04  3.72797E+04 -2.97916E+03  4.42575E+04
 -2.54357E+04  3.73045E+04 -4.26125E+04  1.94445E+04 -4.44150E+04 -2.85171E+03 -3.58354E+04 -2.53532E+04
 -1.45382E+04 -3.67864E+04  1.27610E+04 -3.32073E+04  2.78430E+04 -1.42330E+04  2.44806E+04  7.93462E+03
  7.53463E+03  1.90838E+04 -1.07350E+04  1.55904E+04 -2.05491E+04  3.25252E+03 -1.54537E+04 -1.31231E+04
 -1.15830E+02 -1.92131E+04  1.06936E+04 -1.42267E+04  1.32669E+04 -1.38607E+03  3.82336E+03  8.88398E+03
 -9.41060E+03  4.00593E+03 -9.26118E+03 -6.93377E+03 -1.85507E+03 -1.83620E+04  1.20432E+04 -2.07367E+04
  2.31378E+04 -1.10929E+04  2.58973E+04  3.54447E+03  2.25404E+04  1.79797E+04  9.83532E+03  2.97121E+04
 -5.79046E+03  3.06932E+04 -2.09325E+04  1.90130E+04 -2.25159E+04  4.36337E+03 -1.58760E+04 -5.39019E+03
 -6.15925E+03 -6.35090E+03 -1.00099E+03  6.77052E+02 -2.44405E+03  4.29396E+03 -7.22115E+03  5.60721E+03
 -1.47011E+04 -6.42434E+02 -1.48995E+04 -1.14374E+04 -5.80320E+03 -1.94011E+04  5.85682E+03 -1.63289E+04
  1.28268E+04 -6.91972E+03  9.56972E+03  4.27527E+03  2.76894E+01  6.38037E+03 -8.65972E+03 -6.51150E+02
 -7.34687E+03 -1.07470E+04 -1.84350E+03 -1.49117E+04  8.65684E+03 -1.59617E+04  2.05399E+04 -9.03218E+03
  2.29933E+04  2.85118E+03  1.69316E+04  1.49170E+04  3.60672E+03  1.84153E+04 -9.88724E+03  1.51805E+04
 -1.27453E+04  5.53265E+03 -5.44649E+03 -3.58347E+03  2.03636E+03 -5.08475E+03  7.81077E+03 -9.28851E+02
  7.45604E+03  7.15559E+03  8.25409E+02  1.32243E+04 -8.59438E+03  1.19901E+04 -1.56982E+04  2.89152E+03
 -1.12404E+04 -7.82183E+03  6.29375E+02 -1.38456E+04  8.57980E+03 -6.94193E+03  9.76349E+03  3.69483E+03
  1.95231E+03  9.83036E+03 -7.95738E+03  1.18078E+04 -1.31516E+04  4.75614E+03 -1.40435E+04 -4.90797E+03
 -8.22645E+03 -1.52216E+04  4.09038E+03 -1.69818E+04  1.45521E+04 -1.06526E+04  1.62089E+04  3.21226E+03
  9.54499E+03  1.29462E+04 -2.07744E+03  1.58019E+04 -1.15467E+04  8.43736E+03 -1.25745E+04 -2.36224E+03
 -1.04070E+04 -1.05352E+04 -1.82754E+03 -1.15652E+04  6.26505E+03 -9.71691E+03  7.49596E+03 -3.95360E+03
  5.74438E+03  1.38558E+03 -9.86611E+02  2.04092E+03 -1.15503E+03 -3.80576E+03  2.33799E+03 -6.77094E+03
  1.16991E+04 -5.20948E+03  1.60879E+04  1.76132E+03  1.52728E+04  1.09181E+04  1.00656E+04  2.07586E+04
 -4.57509E+03  2.34657E+04 -1.90167E+04  1.67798E+04 -2.48775E+04  3.31848E+03 -1.97577E+04 -9.22438E+03
 -1.05514E+04 -1.71635E+04 -1.86914E+01 -1.39147E+04  5.37361E+03 -7.79210E+03  4.87474E+03 -5.16216E+03
  3.85446E+03 -3.17446E+03  4.10409E+03 -3.89279E+03  5.77989E+03 -3.55430E+03  7.83085E+03 -1.74354E+03
  1.05335E+04  2.45714E+03  5.52764E+03  9.73069E+03 -1.85768E+03  1.12786E+04 -1.11196E+04  8.44407E+03
 -1.41095E+04 -6.32839E+02 -8.96254E+03 -1.08098E+04 -7.13500E+02 -1.55789E+04  8.46141E+03 -1.47321E+04
  1.64634E+04 -7.86157E+03  1.92579E+04  2.06140E+03  1.32791E+04  1.39922E+04  1.71942E+03  1.63711E+04
 -7.51768E+03  1.38140E+04 -1.06348E+04  5.44461E+03 -7.27237E+03 -2.16533E+03 -2.75249E+03 -2.49907E+03
 -9.82184E+02  3.35410E+02 -2.48082E+03  3.01256E+03 -6.16722E+03  2.09690E+03 -9.71870E+03 -1.74392E+03
 -7.32735E+03 -1.01940E+04  6.98608E+02 -1.46255E+04  7.95028E+03 -1.33296E+04  1.32899E+04 -4.63124E+03
  1.36016E+04  7.46789E+03  7.22746E+03  1.32288E+04 -1.99479E+03  1.44967E+04 -1.03413E+04  8.79747E+03
 -1.36960E+04  6.22790E+02 -1.02840E+04 -8.88553E+03 -6.46563E+02 -1.15135E+04  5.56226E+03 -8.26968E+03
  8.84334E+03 -2.89698E+03  6.41730E+03  1.36026E+03  2.82375E+03  4.52914E+03  1.07891E+03  2.01512E+03
  3.17165E+03  4.60671E+02  3.51588E+03  2.35441E+03  3.29943E+03  4.88547E+03  4.05166E+03  8.54723E+03
 -2.62257E+03  1.15803E+04 -9.67901E+03  1.07764E+04 -1.47740E+04  3.05019E+03 -1.46015E+04 -6.25226E+03
 -6.83807E+03 -1.39626E+04  1.76866E+03 -1.53587E+04  8.59596E+03 -9.90935E+03  1.28842E+04 -2.57530E+03
  9.12666E+03  6.08897E+03  1.68983E+03  8.20292E+03 -4.37971E+03  5.39547E+03 -6.08990E+03 -7.69497E+02
 -2.87698E+03 -6.10718E+03  3.61510E+03 -6.57807E+03  6.00395E+03 -4.01969E+03  5.77338E+03  1.89044E+03
  3.62776E+03  3.12063E+03  1.54572E+03  2.17843E+03 -9.63235E+02  2.42061E+03  1.62397E+03 -7.73133E+02
  1.54366E+03 -1.41836E+02  4.81260E+03  1.85632E+03  2.96445E+03  8.09876E+03 -1.54031E+03  1.06524E+04
 -6.82877E+03  6.64337E+03 -8.38118E+03  2.19773E+03 -7.91570E+03 -3.75304E+03 -3.93668E+03 -4.87581E+03
  7.63517E+02 -5.38082E+03  3.61618E+03 -2.65533E+03  2.95059E+03  2.75409E+03 -2.38663E+03  4.71478E+03
 -6.01087E+03  2.37562E+03 -6.90415E+03 -2.72920E+03 -3.99212E+03 -7.79282E+03  1.07525E+03 -8.77297E+03
  5.38763E+03 -4.62580E+03  5.62831E+03 -5.62416E+02  5.94068E+03  2.15701E+03  8.78269E+02  4.29030E+03
 -3.17824E+03  1.10461E+03 -3.82267E+03 -2.63104E+03  1.93440E+03 -6.86143E+03  7.46458E+03 -5.42767E+03
  8.58872E+03  1.66084E+02  9.12494E+03  6.11732E+03  3.10976E+03  9.38201E+03 -3.20156E+03  8.23298E+03
 -7.77746E+03  3.98575E+03 -7.78922E+03 -1.74561E+03 -4.30221E+03 -5.86367E+03  2.01877E+03 -6.55342E+03
  5.15506E+03 -2.39330E+03  4.32442E+03  2.85402E+03  1.67586E+03  5.18706E+03 -7.41044E+02  3.97756E+03
 -2.84384E+03  2.77332E+03 -2.36321E+03  7.14164E+02 -4.31830E+02  9.86605E+02 -2.03408E+03  1.97152E+03
 -1.98706E+03  3.81467E+03 -6.96545E+03  3.55166E+03 -8.84319E+03  2.16088E+02 -1.06891E+04 -6.25121E+03
 -5.00829E+03 -1.21286E+04  2.86480E+03 -1.34147E+04  8.87052E+03 -1.10574E+04  1.37942E+04 -4.04386E+03
  1.24675E+04  3.22500E+03  8.05498E+03  8.03820E+03  7.59689E+02  9.42554E+03 -3.68258E+03  7.58041E+03
 -4.96548E+03  2.75530E+03 -2.18434E+03 -9.49966E+02 -1.79443E+03 -9.64994E+02 -8.86952E+02  8.47861E+02
 -1.70536E+03  6.54867E+02 -1.47804E+03 -1.03806E+02 -8.43812E+02 -2.52448E+03  3.80903E+02 -3.04539E+03
  4.30600E+03 -2.73036E+03  5.87382E+03 -4.16827E+02  6.72189E+03  4.95763E+03  1.38520E+03  1.02515E+04
 -4.57040E+03  1.07681E+04 -1.01051E+04  5.28033E+03 -1.14397E+04 -1.28788E+03 -8.72763E+03 -6.43984E+03
 -2.93721E+03 -9.85417E+03  2.35300E+03 -8.13837E+03  6.16549E+03 -4.61554E+03  6.06239E+03  9.41193E+02
  3.75609E+03  2.78540E+03  1.54213E+02  2.41313E+03 -1.83238E+03 -5.07240E+02  7.21248E+02 -1.97823E+03
  2.81491E+03 -2.58697E+02  3.60671E+03  8.29207E+02  2.98987E+03  3.62422E+03 -1.83186E+01  4.45197E+03
 -3.75537E+03  3.75106E+03 -6.35035E+03  1.13298E+03 -5.53029E+03 -4.28838E+03 -1.01302E+03 -7.27662E+03
  4.41049E+03 -6.76864E+03  7.00169E+03 -2.41416E+03  6.16533E+03  2.18333E+03  4.00323E+03  5.12569E+03
  7.97389E+02  5.94116E+03 -1.91316E+03  5.16179E+03 -4.17429E+03  2.56624E+03 -2.83275E+03 -7.64305E+01
 -2.05347E+03 -2.63965E+02 -1.31666E+03  3.64523E+02 -2.99505E+03  9.86130E+02 -5.01150E+03 -1.07570E+03
 -4.76182E+03 -3.39903E+03 -2.45387E+03 -6.20010E+03  2.49372E+03 -7.02499E+03  5.27769E+03 -2.74495E+03
  5.17227E+03  4.60807E+02  2.97051E+03  4.54567E+03  3.68642E+02  5.86023E+03 -5.42228E+03  4.37187E+03
