 $NMID ID='MM_0lb_SNR400_11hz_g40_12.RAW', FMTDAT='(8E13.5)'
 TRAMP=1., VOLUME=1. $END
  3.09613E+05 -1.00825E+02  3.38249E+05  2.51131E+05  8.51101E+04  3.37975E+05 -1.32168E+05  2.50290E+05
 -1.90537E+05  8.31527E+04 -1.11793E+05 -3.31617E+04  9.14310E+02 -5.09625E+04  5.43809E+04  3.18987E+02
  3.51800E+04  5.33573E+04 -1.64351E+04  7.48053E+04 -6.15571E+04  6.34299E+04 -8.49464E+04  3.19372E+04
 -8.16622E+04 -1.17041E+04 -5.76568E+04 -5.13522E+04 -1.48951E+04 -6.96768E+04  2.77556E+04 -4.60313E+04
  4.02031E+04  3.67362E+03  1.63849E+04  4.76831E+04 -3.46735E+04  4.75614E+04 -6.75940E+04 -5.02443E+01
 -5.44241E+04 -5.73001E+04 -6.98126E+03 -7.68700E+04  3.37820E+04 -5.59529E+04  4.89671E+04 -1.78546E+04
  4.43955E+04  1.11566E+04  3.22253E+04  2.64149E+04  1.60171E+04  3.01043E+04 -6.08406E+03  2.73467E+04
 -2.24134E+04  1.26001E+04 -1.82046E+04 -5.33655E+03  6.34725E+03 -7.11021E+03  2.26330E+04  1.30896E+04
  7.02789E+03  3.54917E+04 -3.22364E+04  3.54407E+04 -6.42124E+04  1.82344E+03 -5.78447E+04 -4.34695E+04
 -1.22477E+04 -6.41445E+04  4.10070E+04 -4.59049E+04  6.06938E+04 -1.99367E+03  3.52225E+04  3.23811E+04
 -6.00731E+03  3.68621E+04 -3.13484E+04  1.75094E+04 -3.13319E+04 -4.41439E+03 -1.72604E+04 -1.12621E+04
 -9.75799E+03 -1.39237E+04 -8.51426E+02 -1.83219E+04  7.67285E+03 -2.34942E+04  1.55787E+04 -1.33766E+04
  1.04133E+04  4.95885E+03 -8.90715E+03  1.34521E+04 -2.18620E+04 -5.38167E+03 -7.84521E+03 -3.57396E+04
  2.39927E+04 -4.47559E+04  4.97081E+04 -1.93861E+04  4.63327E+04  1.99677E+04  1.63685E+04  4.51167E+04
 -1.62352E+04  3.43387E+04 -2.62307E+04  1.83072E+03 -1.06747E+04 -2.81202E+04  2.18935E+04 -3.44155E+04
  4.22731E+04 -1.01947E+04  3.79949E+04  2.37815E+04  1.92605E+04  4.78300E+04 -8.26503E+03  5.22979E+04
 -3.29299E+04  3.56761E+04 -4.38513E+04  9.83777E+03 -4.43652E+04 -1.74265E+04 -2.41136E+04 -3.90422E+04
  7.51228E+03 -3.95718E+04  3.19684E+04 -1.52548E+04  3.04018E+04  1.09480E+04  4.29038E+03  2.01236E+04
 -1.34060E+04  9.09880E+03 -1.08622E+04 -7.22582E+03  5.73235E+03 -1.09364E+04  1.84131E+04  6.16203E+03
  1.40245E+04  2.13615E+04 -6.25041E+03  2.56244E+04 -2.21521E+04  1.25889E+04 -2.94453E+04 -4.14264E+03
 -2.26018E+04 -1.82452E+04 -9.39449E+03 -2.29430E+04  3.67576E+03 -2.17377E+04  1.73814E+04 -2.00285E+04
  2.90989E+04 -1.40206E+04  3.46399E+04  4.33427E+03  2.50239E+04  2.09350E+04  3.94899E+03  3.89529E+04
 -1.91960E+04  3.23881E+04 -2.91156E+04  1.11636E+04 -2.18393E+04 -1.11437E+04 -4.37256E+03 -1.32303E+04
  1.03016E+03 -1.36608E+03 -6.05949E+03  7.62302E+03 -1.73718E+04  5.09503E+03 -1.80069E+04 -7.80379E+03
 -1.13878E+04 -2.05884E+04  5.87429E+03 -2.54109E+04  1.74298E+04 -1.79561E+04  1.99926E+04 -1.75034E+03
  1.24502E+04  1.44798E+04 -5.34048E+02  1.99248E+04 -1.43829E+04  1.14067E+04 -2.07594E+04 -3.92887E+03
 -1.49566E+04 -1.87044E+04 -1.87688E+03 -2.50246E+04  1.18951E+04 -2.10049E+04  2.11386E+04 -1.06256E+04
  1.86452E+04  6.71371E+02  1.46321E+04  4.99095E+03  7.33354E+03  6.85411E+02  1.08379E+04 -1.60860E+03
  1.96209E+04  3.02803E+03  2.16506E+04  1.65469E+04  1.46420E+04  3.35860E+04 -2.17236E+03  3.87228E+04
 -2.25674E+04  3.13181E+04 -3.56378E+04  1.59668E+04 -3.75094E+04 -2.92455E+03 -3.15481E+04 -2.18035E+04
 -1.30987E+04 -3.15778E+04  1.15323E+04 -2.87132E+04  2.38785E+04 -1.35818E+04  2.12114E+04  6.73964E+03
  8.03224E+03  1.62563E+04 -1.00057E+04  1.36713E+04 -1.77572E+04  2.10770E+03 -1.37655E+04 -1.14074E+04
 -1.57967E+02 -1.67832E+04  9.76212E+03 -1.29572E+04  1.09946E+04 -1.48718E+03  2.29227E+03  7.61056E+03
 -7.30582E+03  3.49495E+03 -6.65076E+03 -6.37936E+03 -1.41223E+03 -1.56456E+04  1.02351E+04 -1.56402E+04
  1.89372E+04 -8.89853E+03  2.00944E+04  2.91839E+03  1.86417E+04  1.56707E+04  8.84476E+03  2.33344E+04
 -4.50875E+03  2.55707E+04 -1.67408E+04  1.60368E+04 -1.86583E+04  3.87896E+03 -1.29421E+04 -4.28878E+03
 -5.92306E+03 -5.53363E+03 -7.81638E+02  9.83913E+02 -2.23241E+03  2.94278E+03 -6.92654E+03  5.21518E+03
 -1.27101E+04 -1.81771E+02 -1.18939E+04 -9.93857E+03 -5.44497E+03 -1.73991E+04  5.29244E+03 -1.33690E+04
  1.07244E+04 -5.37124E+03  6.93042E+03  3.34817E+03 -5.36550E+02  5.22054E+03 -6.72038E+03 -9.00296E+02
 -6.17255E+03 -8.60153E+03 -1.34857E+03 -1.30652E+04  7.11392E+03 -1.38454E+04  1.67535E+04 -7.03866E+03
  1.95069E+04  2.28613E+03  1.40858E+04  1.17806E+04  2.67530E+03  1.53238E+04 -8.19941E+03  1.30119E+04
 -1.06486E+04  4.00733E+03 -5.44822E+03 -2.80324E+03  2.13020E+03 -3.05403E+03  7.61374E+03 -1.06757E+03
  5.90688E+03  5.67185E+03  8.88190E+02  1.08338E+04 -7.26510E+03  1.09018E+04 -1.29710E+04  2.50467E+03
 -9.11557E+03 -6.73360E+03  7.68874E+02 -1.11667E+04  6.68426E+03 -5.52986E+03  7.18666E+03  2.30007E+03
  9.93999E+02  7.73184E+03 -6.34083E+03  9.29022E+03 -1.01195E+04  5.02813E+03 -1.04694E+04 -3.48504E+03
 -5.60233E+03 -1.22312E+04  3.38071E+03 -1.41836E+04  1.17982E+04 -8.34000E+03  1.28568E+04  2.21464E+03
  7.95971E+03  1.04391E+04 -3.57350E+02  1.29864E+04 -9.48612E+03  6.89726E+03 -1.04015E+04 -1.46917E+03
 -9.61191E+03 -8.61926E+03 -2.06725E+03 -9.53632E+03  4.84038E+03 -8.08282E+03  6.62308E+03 -3.40617E+03
  4.05214E+03  1.63686E+03 -3.35356E+02  1.86890E+03  5.38356E+00 -1.85294E+03  1.61082E+03 -5.91958E+03
  8.05882E+03 -3.44548E+03  1.18304E+04  1.23991E+03  1.13595E+04  8.20100E+03  8.64872E+03  1.58044E+04
 -3.85194E+03  1.86248E+04 -1.56291E+04  1.35387E+04 -2.02890E+04  2.94848E+03 -1.59987E+04 -7.16130E+03
 -8.33788E+03 -1.30190E+04 -6.58200E+02 -1.13562E+04  4.21609E+03 -6.47317E+03  3.70610E+03 -4.21141E+03
  2.84830E+03 -2.55327E+03  3.64635E+03 -3.27545E+03  4.92244E+03 -3.47600E+03  6.96505E+03 -4.87028E+02
  8.86608E+03  1.72454E+03  4.79646E+03  7.19927E+03 -2.59425E+03  7.97165E+03 -8.29472E+03  6.63473E+03
 -1.08869E+04 -1.67256E+03 -6.44018E+03 -7.30925E+03 -8.28058E+02 -1.15463E+04  6.33732E+03 -1.23845E+04
  1.20089E+04 -6.83287E+03  1.51755E+04  1.38581E+03  1.00516E+04  1.04446E+04  2.08239E+03  1.39080E+04
 -5.89790E+03  1.13386E+04 -7.38974E+03  3.11249E+03 -5.85932E+03 -8.31951E+02 -2.33856E+03 -1.88814E+03
 -9.49303E+02  5.46802E+02 -1.95072E+03  2.13254E+03 -5.17561E+03  1.89498E+03 -7.20344E+03 -1.02805E+03
 -5.50210E+03 -8.08143E+03 -2.92082E+01 -1.16364E+04  6.67129E+03 -9.94729E+03  1.02208E+04 -2.58459E+03
  1.04738E+04  5.63464E+03  5.23606E+03  9.42137E+03 -2.25894E+03  1.15512E+04 -8.11890E+03  6.91940E+03
 -1.07046E+04  1.10473E+02 -7.95899E+03 -6.60116E+03 -9.36082E+02 -8.87385E+03  5.21103E+03 -6.69707E+03
  6.84671E+03 -2.11510E+03  4.81255E+03  2.14501E+03  1.31809E+03  3.43803E+03  1.53991E+03  1.55349E+03
  2.90055E+03  1.03447E+03  2.31688E+03  1.55120E+03  3.04010E+03  4.29999E+03  2.56630E+03  5.69906E+03
 -2.02655E+03  8.52066E+03 -7.39724E+03  8.46088E+03 -1.08170E+04  2.28531E+03 -1.19383E+04 -4.06302E+03
 -5.02515E+03 -1.07918E+04  2.26133E+03 -1.29001E+04  6.08000E+03 -7.35892E+03  8.29737E+03 -1.17875E+03
  6.66381E+03  4.32469E+03  2.05026E+03  6.38707E+03 -2.54607E+03  4.60236E+03 -4.18895E+03 -7.34309E+02
 -1.88935E+03 -5.24407E+03  2.44656E+03 -5.04474E+03  5.16267E+03 -1.98153E+03  3.63136E+03  1.03730E+03
  2.46795E+03  2.01812E+03  1.58879E+03  1.55308E+03 -5.62532E+02  1.40056E+03  2.52842E+03 -6.20663E+01
  1.06403E+03 -6.53355E+02  4.17317E+03  1.45681E+03  3.05481E+03  5.99168E+03 -8.40186E+02  7.91308E+03
 -4.74172E+03  4.91236E+03 -6.61735E+03  1.01423E+03 -6.06498E+03 -2.91714E+03 -2.25825E+03 -4.64564E+03
  9.75178E+02 -3.19965E+03  2.69000E+03 -2.58127E+03  2.63390E+03  2.75780E+03 -1.75698E+03  3.89621E+03
 -4.13644E+03  1.70943E+03 -5.02013E+03 -2.92692E+03 -2.93111E+03 -5.64629E+03  9.10095E+02 -5.52275E+03
  2.89884E+03 -3.13257E+03  3.94181E+03 -2.13530E+01  3.77614E+03  1.21977E+03  1.42991E+02  3.00817E+03
 -2.25855E+03  1.03977E+03 -2.55797E+03 -2.31470E+03  4.99029E+02 -3.94310E+03  5.45502E+03 -3.75645E+03
  5.55524E+03  3.63074E+02  6.59744E+03  5.12106E+03  2.36065E+03  6.58072E+03 -2.39388E+03  6.77556E+03
 -4.89560E+03  2.09936E+03 -5.93788E+03 -7.81318E+02 -3.04322E+03 -4.66265E+03  1.16574E+03 -3.57331E+03
  3.91078E+03 -1.98599E+03  3.28099E+03  2.51651E+03  2.11195E+03  3.20026E+03 -8.72205E+01  2.71349E+03
 -1.51376E+03  1.67984E+03 -2.20545E+03  5.56272E+02 -7.82528E+02  3.23372E+02 -1.63475E+03  1.24532E+03
 -1.44547E+03  3.41876E+03 -4.96892E+03  2.30019E+03 -6.87536E+03  6.83126E+02 -7.34804E+03 -4.18309E+03
 -4.22184E+03 -8.92282E+03  2.18599E+03 -1.05001E+04  6.18357E+03 -8.23742E+03  9.51380E+03 -3.34721E+03
  8.82196E+03  1.27689E+03  4.66225E+03  5.88049E+03 -1.00270E+03  6.61890E+03 -3.21184E+03  4.87936E+03
 -3.87369E+03  1.33230E+03 -2.69428E+03 -4.02262E+02 -1.59104E+03 -1.10496E+01 -7.37810E+01 -4.26676E+02
 -1.64240E+03  5.72359E+02 -2.14552E+03  4.29058E+02 -4.76311E+02 -6.80293E+02 -2.16208E+01 -2.23619E+03
  3.42750E+03 -2.40886E+03  4.25414E+03  4.08171E+02  4.67940E+03  3.43961E+03  1.03671E+03  6.91165E+03
 -2.85895E+03  8.25634E+03 -7.06987E+03  4.00551E+03 -8.54934E+03 -9.19916E+02 -6.31077E+03 -4.76930E+03
 -3.22949E+03 -7.62972E+03  1.83140E+03 -5.76052E+03  5.32449E+03 -3.80807E+03  3.83771E+03 -4.54940E+02
  2.25469E+03  2.33723E+03  4.36409E+02  3.00480E+03 -6.88829E+02  4.96294E+02  4.47825E+02 -1.85171E+03
  2.07227E+03 -9.39613E+02  2.18194E+03  4.31377E+02  1.93939E+03  2.50704E+03  4.67748E+01  3.29882E+03
 -3.18878E+03  3.05220E+03 -4.47325E+03 -2.53380E+02 -4.41051E+03 -3.44541E+03 -4.68429E+02 -5.62619E+03
  3.19859E+03 -4.98290E+03  5.23018E+03 -1.52000E+03  4.93173E+03  9.23923E+02  2.96497E+03  4.47769E+03
  6.23636E+02  4.11282E+03 -1.53266E+03  3.35555E+03 -2.45457E+03  2.48444E+03 -3.03530E+03  2.08463E+02
 -1.92714E+03 -4.62590E+01 -1.03873E+03  8.26949E+02 -2.41145E+03  7.57253E+02 -3.00121E+03 -2.06330E+02
 -3.76448E+03 -1.72636E+03 -1.25380E+03 -4.16032E+03  2.04157E+03 -4.65688E+03  3.60536E+03 -1.88408E+03
  5.15492E+03  8.60725E+02  1.77654E+03  3.77772E+03 -5.26274E+01  4.83922E+03 -3.91747E+03  2.49990E+03
