 $NMID ID='MM_0lb_SNR400_10hz_g50_95.RAW', FMTDAT='(8E13.5)'
 TRAMP=1., VOLUME=1. $END
  3.08990E+05  9.34812E+02  3.37640E+05  2.50902E+05  8.49346E+04  3.38457E+05 -1.32178E+05  2.51377E+05
 -1.90878E+05  8.30568E+04 -1.12807E+05 -3.22435E+04  2.86731E+02 -5.03047E+04  5.38477E+04  2.49917E+02
  3.55347E+04  5.25477E+04 -1.73960E+04  7.62774E+04 -6.14638E+04  6.40570E+04 -8.55200E+04  3.30964E+04
 -8.22943E+04 -1.25146E+04 -5.78448E+04 -5.15942E+04 -1.51935E+04 -7.06779E+04  2.81460E+04 -4.61966E+04
  4.09624E+04  3.61209E+03  1.66908E+04  4.78032E+04 -3.44678E+04  4.85261E+04 -6.72229E+04  4.53875E+02
 -5.48730E+04 -5.69610E+04 -7.48527E+03 -7.89415E+04  3.46116E+04 -5.67210E+04  4.91946E+04 -1.81402E+04
  4.52510E+04  1.10495E+04  3.33436E+04  2.56800E+04  1.49782E+04  3.02086E+04 -5.03606E+03  2.78039E+04
 -2.28429E+04  1.24782E+04 -1.78652E+04 -5.98157E+03  6.69782E+03 -7.76301E+03  2.28481E+04  1.36727E+04
  6.99816E+03  3.77852E+04 -3.28692E+04  3.65063E+04 -6.53982E+04  2.74278E+03 -5.81049E+04 -4.49920E+04
 -1.28497E+04 -6.60041E+04  4.09735E+04 -4.68835E+04  5.99325E+04 -2.59861E+03  3.68574E+04  3.48194E+04
 -5.72397E+03  3.91226E+04 -3.07236E+04  1.76355E+04 -3.30492E+04 -2.91266E+03 -1.93681E+04 -1.16863E+04
 -9.70511E+03 -1.49528E+04 -6.65043E+02 -1.99463E+04  8.85878E+03 -2.27143E+04  1.60199E+04 -1.31194E+04
  1.05257E+04  5.86861E+03 -9.94598E+03  1.29272E+04 -2.38273E+04 -6.08300E+03 -9.17046E+03 -3.66477E+04
  2.45246E+04 -4.62477E+04  5.18557E+04 -2.05181E+04  4.80878E+04  2.01650E+04  1.64234E+04  4.71497E+04
 -1.65009E+04  3.49320E+04 -2.71562E+04  2.17360E+03 -1.11034E+04 -2.95124E+04  2.11678E+04 -3.53550E+04
  4.38052E+04 -1.05904E+04  3.96985E+04  2.51513E+04  2.11490E+04  5.00726E+04 -8.53431E+03  5.44872E+04
 -3.48010E+04  3.80122E+04 -4.65987E+04  1.03548E+04 -4.63857E+04 -1.86992E+04 -2.58269E+04 -4.18799E+04
  7.67374E+03 -4.18066E+04  3.30805E+04 -1.64766E+04  3.08686E+04  1.12727E+04  5.10844E+03  2.02774E+04
 -1.35578E+04  1.04408E+04 -1.15486E+04 -7.76891E+03  6.36695E+03 -1.15381E+04  1.86253E+04  4.99085E+03
  1.52665E+04  2.25721E+04 -5.00594E+03  2.67862E+04 -2.32135E+04  1.40983E+04 -3.10688E+04 -3.76959E+03
 -2.44177E+04 -1.84939E+04 -1.10402E+04 -2.43376E+04  4.51009E+03 -2.46749E+04  1.92700E+04 -2.24299E+04
  3.11048E+04 -1.39118E+04  3.65871E+04  4.99445E+03  2.66353E+04  2.31005E+04  4.13562E+03  4.01528E+04
 -1.95373E+04  3.31615E+04 -3.05660E+04  1.22911E+04 -2.19667E+04 -9.64304E+03 -4.45799E+03 -1.23974E+04
  1.55394E+03 -1.08182E+03 -7.03309E+03  7.47893E+03 -1.87821E+04  4.98684E+03 -1.97588E+04 -9.10625E+03
 -1.10316E+04 -2.26541E+04  6.40589E+03 -2.70063E+04  1.75208E+04 -1.88192E+04  2.19744E+04 -2.36057E+03
  1.37976E+04  1.56117E+04 -1.37681E+03  2.22842E+04 -1.63187E+04  1.22720E+04 -2.27115E+04 -4.96450E+03
 -1.59822E+04 -2.00756E+04 -2.39917E+03 -2.62098E+04  1.23445E+04 -2.23420E+04  2.24702E+04 -1.13474E+04
  2.16740E+04  1.99494E+02  1.54681E+04  4.77768E+03  9.08746E+03  1.04462E+03  1.14625E+04 -1.57706E+03
  2.16113E+04  2.59632E+03  2.43982E+04  1.72337E+04  1.60692E+04  3.63599E+04 -2.48550E+03  4.22978E+04
 -2.43979E+04  3.49442E+04 -4.00919E+04  1.77408E+04 -4.22632E+04 -3.25075E+03 -3.45475E+04 -2.47755E+04
 -1.46801E+04 -3.53729E+04  1.20149E+04 -3.12980E+04  2.67231E+04 -1.47383E+04  2.31284E+04  6.88251E+03
  7.65948E+03  1.79850E+04 -1.07082E+04  1.55565E+04 -1.91492E+04  2.47819E+03 -1.45396E+04 -1.24114E+04
  2.32088E+01 -1.77957E+04  9.75489E+03 -1.42909E+04  1.27238E+04 -1.61693E+03  3.24919E+03  8.44443E+03
 -7.64205E+03  3.69058E+03 -9.43730E+03 -7.01223E+03 -1.92737E+03 -1.75011E+04  1.17918E+04 -1.78152E+04
  2.15416E+04 -1.05978E+04  2.37649E+04  2.56044E+03  2.16386E+04  1.72652E+04  1.02750E+04  2.72048E+04
 -5.28316E+03  2.82608E+04 -1.95986E+04  1.84686E+04 -2.10861E+04  3.54160E+03 -1.50181E+04 -4.53936E+03
 -6.34604E+03 -7.26675E+03 -8.34526E+02  6.28198E+02 -3.12349E+03  3.26887E+03 -6.75123E+03  5.23118E+03
 -1.37196E+04 -3.96411E+02 -1.38102E+04 -1.05642E+04 -6.49400E+03 -1.88395E+04  5.69560E+03 -1.53600E+04
  1.29506E+04 -6.69941E+03  8.25201E+03  2.93711E+03 -1.52196E+02  5.79969E+03 -7.31925E+03  2.82944E+02
 -6.72221E+03 -9.50343E+03 -1.59703E+03 -1.50046E+04  8.47895E+03 -1.50067E+04  1.83310E+04 -7.65747E+03
  2.18711E+04  2.29617E+03  1.59018E+04  1.31385E+04  3.55577E+03  1.82187E+04 -9.87440E+03  1.43583E+04
 -1.23319E+04  4.43559E+03 -6.00017E+03 -3.48446E+03  2.23474E+03 -4.45242E+03  7.52822E+03 -1.45955E+03
  7.22450E+03  7.31657E+03  5.01558E+02  1.07359E+04 -9.32577E+03  1.11032E+04 -1.45925E+04  2.54915E+03
 -9.55598E+03 -8.37872E+03  3.49804E+02 -1.29341E+04  7.99916E+03 -6.21988E+03  8.78175E+03  3.37476E+03
  2.16124E+03  8.87884E+03 -8.22825E+03  1.04378E+04 -1.28344E+04  4.76624E+03 -1.29254E+04 -4.05892E+03
 -7.15143E+03 -1.41365E+04  3.27742E+03 -1.66618E+04  1.33427E+04 -1.03241E+04  1.59577E+04  3.11050E+03
  8.86515E+03  1.21207E+04 -1.10357E+03  1.41135E+04 -1.00732E+04  8.04799E+03 -1.07575E+04 -1.24111E+03
 -1.04107E+04 -9.39218E+03 -1.18917E+03 -1.11761E+04  6.03662E+03 -9.32237E+03  6.15386E+03 -3.01361E+03
  4.83200E+03  1.84947E+03 -9.21725E+02  2.10915E+03 -3.55993E+02 -2.82426E+03  2.25982E+03 -6.83186E+03
  1.12450E+04 -4.06477E+03  1.45568E+04  7.69923E+02  1.45658E+04  9.75625E+03  9.20482E+03  1.83598E+04
 -4.32229E+03  2.11635E+04 -1.79913E+04  1.62268E+04 -2.37573E+04  3.20058E+03 -1.87604E+04 -7.57685E+03
 -9.17221E+03 -1.48891E+04 -4.92245E+02 -1.36315E+04  5.17664E+03 -7.87345E+03  4.19723E+03 -4.66649E+03
  3.69836E+03 -3.19696E+03  3.86040E+03 -3.53947E+03  5.47587E+03 -3.23615E+03  7.44545E+03 -1.10989E+03
  9.19634E+03  1.99262E+03  5.93158E+03  8.16349E+03 -2.59465E+03  1.01065E+04 -9.61074E+03  7.51910E+03
 -1.22499E+04 -1.28041E+03 -8.09152E+03 -9.08568E+03 -1.81770E+03 -1.45900E+04  7.72671E+03 -1.45975E+04
  1.40009E+04 -8.16353E+03  1.76135E+04  1.91882E+03  1.19257E+04  1.21070E+04  1.73303E+03  1.56008E+04
 -6.47789E+03  1.33313E+04 -9.04285E+03  4.89904E+03 -6.91974E+03 -1.09331E+03 -3.60621E+03 -1.86128E+03
 -1.03562E+03 -5.64991E+02 -1.48418E+03  2.63202E+03 -5.51938E+03  2.65695E+03 -9.10727E+03 -1.30864E+03
 -6.46431E+03 -9.37172E+03  2.16142E+02 -1.27499E+04  7.77522E+03 -1.21626E+04  1.32585E+04 -3.64882E+03
  1.25653E+04  6.63105E+03  5.53206E+03  1.12761E+04 -2.82729E+03  1.34009E+04 -9.66533E+03  8.73648E+03
 -1.24200E+04  1.13638E+02 -9.69579E+03 -7.67107E+03 -1.38621E+03 -1.17566E+04  5.23831E+03 -8.32556E+03
  8.65373E+03 -3.08073E+03  5.80779E+03  2.24581E+03  1.97643E+03  3.62004E+03  1.27438E+03  2.47763E+03
  2.54326E+03  1.14225E+03  2.97860E+03  1.47546E+03  4.29817E+03  4.99344E+03  3.60315E+03  7.00100E+03
 -3.17453E+03  9.99680E+03 -8.78530E+03  1.04243E+04 -1.35285E+04  2.90474E+03 -1.38328E+04 -5.20098E+03
 -6.61496E+03 -1.31010E+04  1.70365E+03 -1.44842E+04  8.46643E+03 -9.10955E+03  1.09344E+04 -2.39232E+03
  8.18901E+03  4.91611E+03  2.05626E+03  7.80222E+03 -3.17265E+03  5.31748E+03 -4.86456E+03 -1.49436E+03
 -2.14827E+03 -5.78541E+03  2.52174E+03 -6.10986E+03  5.33009E+03 -2.97905E+03  5.34747E+03  1.78061E+03
  3.50804E+03  2.51880E+03  1.63428E+03  1.80891E+03 -6.00099E+02  1.55175E+03  1.47643E+03 -9.57267E+02
  2.63906E+03  1.34355E+02  5.33286E+03  2.79027E+03  3.01525E+03  6.54800E+03 -1.49904E+03  8.68144E+03
 -6.20079E+03  5.82448E+03 -8.70761E+03  2.63817E+03 -7.61710E+03 -3.25968E+03 -2.30700E+03 -5.14139E+03
  1.03142E+03 -5.27015E+03  3.23271E+03 -2.37320E+03  2.27518E+03  2.42715E+03 -1.38097E+03  4.54364E+03
 -4.79414E+03  2.24820E+03 -5.81748E+03 -2.66955E+03 -3.19112E+03 -7.35427E+03  1.19789E+03 -6.23898E+03
  3.20292E+03 -4.40938E+03  5.20590E+03 -5.76160E+02  4.69787E+03  2.15947E+03  8.04440E+02  3.75352E+03
 -2.02256E+03  8.00614E+02 -3.20684E+03 -2.50692E+03  1.18625E+03 -5.28164E+03  6.20014E+03 -4.34279E+03
  7.56616E+03  8.69275E+02  9.10848E+03  5.28843E+03  2.96180E+03  8.50330E+03 -3.80842E+03  7.64048E+03
 -7.55215E+03  3.44008E+03 -7.81194E+03 -1.03678E+03 -4.28699E+03 -5.02869E+03  9.63322E+02 -5.39872E+03
  4.88574E+03 -2.41768E+03  4.44704E+03  2.32368E+03  2.04876E+03  4.71854E+03 -7.23969E+02  3.72708E+03
 -2.25998E+03  3.47944E+03 -1.98470E+03  9.31341E+02 -7.16914E+02  1.07637E+03 -1.08066E+03  1.66440E+03
 -2.86402E+03  3.33234E+03 -5.68763E+03  3.34878E+03 -8.77059E+03  8.79389E+02 -9.00754E+03 -5.98637E+03
 -5.06817E+03 -1.14257E+04  2.06894E+03 -1.33316E+04  7.75293E+03 -9.75633E+03  1.31549E+04 -3.96678E+03
  1.11238E+04  1.91964E+03  7.16847E+03  7.30938E+03  5.55206E+02  8.20095E+03 -3.75626E+03  5.87070E+03
 -5.28301E+03  2.07394E+03 -3.03463E+03 -1.00579E+03  1.69644E+02 -8.63196E+02 -1.36891E+03  2.75794E+02
 -1.52236E+03  1.78931E+02 -2.06197E+03 -3.88661E+02 -5.12646E+02 -2.05996E+03  1.77513E+02 -3.24226E+03
  3.97189E+03 -2.52971E+03  5.08643E+03  4.60931E+02  6.67459E+03  4.65323E+03  1.17427E+03  8.91544E+03
 -4.46773E+03  9.34588E+03 -8.94815E+03  6.32228E+03 -1.04812E+04 -7.25403E+02 -8.45609E+03 -6.88596E+03
 -3.36782E+03 -8.53007E+03  2.79405E+03 -7.53833E+03  6.12696E+03 -5.72888E+03  5.69039E+03  6.69183E+02
  3.44316E+03  2.79574E+03  3.76726E+02  2.14335E+03 -1.36243E+03 -3.02576E+02 -3.91254E+02 -1.81326E+03
  3.20938E+03 -2.68573E+02  3.64742E+03  1.04571E+03  2.26104E+03  2.92469E+03  3.97730E+02  4.22754E+03
 -3.79987E+03  4.20636E+03 -5.52981E+03  2.68358E+02 -5.70014E+03 -4.12047E+03 -7.51612E+02 -7.41219E+03
  3.90634E+03 -5.89332E+03  5.99291E+03 -1.79355E+03  6.59958E+03  1.31254E+03  4.19112E+03  5.74787E+03
  1.24612E+03  5.60420E+03 -2.39037E+03  4.52801E+03 -3.30582E+03  2.68908E+03 -2.45265E+03  5.58282E+01
 -1.36850E+03 -6.25562E+02 -6.83291E+02  2.70559E+02 -2.48447E+03  3.75251E+02 -4.44811E+03 -1.27477E+03
 -3.73134E+03 -2.58562E+03 -1.51718E+03 -5.99338E+03  2.78265E+03 -5.43879E+03  4.17031E+03 -2.31561E+03
  5.55545E+03  1.16932E+03  2.17201E+03  3.45986E+03 -7.73904E+02  5.52174E+03 -3.96109E+03  4.30583E+03
