 $NMID ID='MM_0lb_SNR400_10hz_g55_4.RAW', FMTDAT='(8E13.5)'
 TRAMP=1., VOLUME=1. $END
  3.09823E+05 -5.35694E+01  3.37396E+05  2.50575E+05  8.48461E+04  3.38494E+05 -1.32837E+05  2.52088E+05
 -1.90899E+05  8.29194E+04 -1.12529E+05 -3.18236E+04 -1.67469E+02 -5.07005E+04  5.38205E+04 -6.28727E+02
  3.61549E+04  5.27094E+04 -1.63103E+04  7.65853E+04 -6.18017E+04  6.41012E+04 -8.54196E+04  3.22789E+04
 -8.23188E+04 -1.12660E+04 -5.78918E+04 -5.15213E+04 -1.52771E+04 -7.07115E+04  2.79362E+04 -4.62088E+04
  4.00650E+04  3.59102E+03  1.65935E+04  4.84894E+04 -3.40945E+04  4.82435E+04 -6.71864E+04  5.86681E+02
 -5.41437E+04 -5.73319E+04 -7.38520E+03 -7.86976E+04  3.49866E+04 -5.68947E+04  4.94955E+04 -1.81980E+04
  4.57248E+04  1.12377E+04  3.30750E+04  2.69360E+04  1.59872E+04  3.03801E+04 -5.90642E+03  2.77206E+04
 -2.27500E+04  1.18871E+04 -1.78154E+04 -5.42815E+03  7.12094E+03 -7.45576E+03  2.31535E+04  1.39967E+04
  7.21268E+03  3.69844E+04 -3.40281E+04  3.70698E+04 -6.55030E+04  9.01621E+02 -5.84486E+04 -4.43793E+04
 -1.33179E+04 -6.55317E+04  4.12682E+04 -4.76120E+04  6.10192E+04 -2.55960E+03  3.61986E+04  3.42191E+04
 -5.23673E+03  3.93198E+04 -3.12062E+04  1.89723E+04 -3.36009E+04 -4.11577E+03 -1.94855E+04 -1.24946E+04
 -9.23437E+03 -1.43800E+04 -1.96007E+02 -1.96274E+04  8.41586E+03 -2.38054E+04  1.58580E+04 -1.34329E+04
  1.10726E+04  5.65441E+03 -1.00682E+04  1.25021E+04 -2.28054E+04 -6.51565E+03 -7.92186E+03 -3.70946E+04
  2.44481E+04 -4.68187E+04  5.16383E+04 -2.16782E+04  4.77938E+04  2.02625E+04  1.62438E+04  4.60015E+04
 -1.66036E+04  3.54910E+04 -2.72304E+04  3.25980E+03 -1.17684E+04 -2.88217E+04  2.20718E+04 -3.65572E+04
  4.43393E+04 -1.06649E+04  3.95442E+04  2.50896E+04  2.00574E+04  5.08751E+04 -9.20031E+03  5.58775E+04
 -3.50325E+04  3.77159E+04 -4.66332E+04  1.06253E+04 -4.81162E+04 -1.88752E+04 -2.51836E+04 -4.19071E+04
  8.06966E+03 -4.14833E+04  3.43802E+04 -1.70021E+04  3.19431E+04  1.15575E+04  5.12612E+03  2.05525E+04
 -1.41312E+04  9.41621E+03 -1.11027E+04 -7.25047E+03  5.13480E+03 -1.11878E+04  1.83336E+04  5.58681E+03
  1.45296E+04  2.24737E+04 -5.57395E+03  2.65114E+04 -2.40024E+04  1.42023E+04 -3.19869E+04 -2.62536E+03
 -2.46968E+04 -1.81471E+04 -1.12286E+04 -2.47604E+04  4.87515E+03 -2.48215E+04  1.93468E+04 -2.28426E+04
  3.12153E+04 -1.40332E+04  3.75376E+04  5.01941E+03  2.70342E+04  2.39695E+04  4.43521E+03  4.07470E+04
 -1.93651E+04  3.38736E+04 -3.14126E+04  1.16238E+04 -2.29116E+04 -1.01577E+04 -5.39549E+03 -1.27159E+04
  3.61240E+02 -1.13703E+03 -6.97436E+03  8.49134E+03 -1.97811E+04  4.55876E+03 -2.00094E+04 -9.47001E+03
 -1.23301E+04 -2.25535E+04  5.37036E+03 -2.72031E+04  1.85968E+04 -1.92744E+04  2.24618E+04 -1.55054E+03
  1.39287E+04  1.68642E+04 -1.13191E+03  2.30921E+04 -1.61566E+04  1.28347E+04 -2.39466E+04 -5.72094E+03
 -1.68199E+04 -2.05580E+04 -2.33530E+03 -2.76318E+04  1.21690E+04 -2.24607E+04  2.18712E+04 -1.07137E+04
  2.05252E+04 -2.52942E+02  1.48370E+04  4.36510E+03  8.26604E+03  1.74685E+03  1.18271E+04 -1.65795E+03
  2.15063E+04  2.36053E+03  2.49331E+04  1.71301E+04  1.67078E+04  3.70980E+04 -2.34769E+03  4.35106E+04
 -2.47108E+04  3.61387E+04 -4.07990E+04  1.86499E+04 -4.37027E+04 -3.52179E+03 -3.63095E+04 -2.53770E+04
 -1.42215E+04 -3.62186E+04  1.29631E+04 -3.18134E+04  2.65761E+04 -1.46893E+04  2.41121E+04  8.79107E+03
  8.27992E+03  1.81803E+04 -1.16592E+04  1.47648E+04 -1.88413E+04  3.25000E+03 -1.52034E+04 -1.27940E+04
  5.67749E+02 -1.92336E+04  1.04448E+04 -1.35935E+04  1.34524E+04 -4.82039E+02  3.64710E+03  9.27530E+03
 -8.80136E+03  4.31651E+03 -7.93890E+03 -7.07535E+03 -1.62302E+03 -1.75914E+04  1.09892E+04 -1.89967E+04
  2.29266E+04 -1.11906E+04  2.54940E+04  3.41787E+03  2.15705E+04  1.79861E+04  9.73472E+03  2.86506E+04
 -5.43050E+03  3.04329E+04 -1.97941E+04  1.87988E+04 -2.21980E+04  3.96526E+03 -1.50951E+04 -5.91180E+03
 -6.83069E+03 -6.84127E+03 -5.59622E+02 -2.66138E+02 -2.53211E+03  3.12131E+03 -7.24273E+03  5.76223E+03
 -1.40072E+04 -5.69748E+02 -1.45507E+04 -1.24006E+04 -5.48354E+03 -1.88933E+04  6.74405E+03 -1.53216E+04
  1.27978E+04 -5.82156E+03  9.10499E+03  3.34689E+03  3.31306E+02  5.53078E+03 -7.77880E+03 -6.46205E+00
 -7.42252E+03 -9.88246E+03 -1.34714E+03 -1.46434E+04  8.39884E+03 -1.58253E+04  1.81727E+04 -7.69845E+03
  2.21457E+04  1.96397E+03  1.64077E+04  1.39058E+04  2.86276E+03  1.85468E+04 -8.72691E+03  1.54326E+04
 -1.22439E+04  4.72498E+03 -6.52169E+03 -3.43574E+03  2.72648E+03 -4.32911E+03  8.07869E+03 -1.42952E+03
  7.69713E+03  6.86965E+03  7.61300E+02  1.25229E+04 -8.87319E+03  1.08448E+04 -1.52108E+04  2.35144E+03
 -9.96790E+03 -7.48899E+03  4.45819E+02 -1.31172E+04  8.16290E+03 -6.75794E+03  8.97779E+03  3.37030E+03
  1.74167E+03  1.00250E+04 -7.71448E+03  1.12515E+04 -1.26364E+04  5.01428E+03 -1.31692E+04 -5.11054E+03
 -7.87795E+03 -1.50100E+04  3.96464E+03 -1.75324E+04  1.46875E+04 -1.04828E+04  1.59258E+04  3.33607E+03
  8.96761E+03  1.30584E+04 -1.87707E+03  1.48314E+04 -1.12348E+04  8.84205E+03 -1.20775E+04 -1.80889E+03
 -1.02828E+04 -1.01723E+04 -1.81865E+03 -1.13113E+04  5.69869E+03 -9.49554E+03  7.57462E+03 -3.41705E+03
  4.60343E+03  1.96100E+03 -1.37786E+03  2.11596E+03 -8.81967E+02 -3.62458E+03  2.19833E+03 -6.75322E+03
  1.09564E+04 -4.40303E+03  1.59308E+04  1.58991E+03  1.51736E+04  1.06624E+04  9.92037E+03  1.95757E+04
 -4.98087E+03  2.29941E+04 -1.85709E+04  1.61824E+04 -2.38185E+04  2.71533E+03 -1.91251E+04 -8.71027E+03
 -9.58209E+03 -1.60053E+04 -3.99889E+02 -1.34905E+04  4.93360E+03 -7.93240E+03  4.46871E+03 -5.15499E+03
  4.31142E+03 -3.23859E+03  3.38454E+03 -3.37119E+03  5.50633E+03 -3.81150E+03  7.87391E+03 -1.26610E+03
  1.02881E+04  2.84218E+03  6.55490E+03  8.90083E+03 -1.79212E+03  9.44507E+03 -1.09728E+04  8.35196E+03
 -1.40610E+04 -1.05147E+03 -8.24389E+03 -9.81588E+03 -1.14698E+03 -1.48911E+04  8.02258E+03 -1.50796E+04
  1.52565E+04 -8.54983E+03  1.83656E+04  2.34437E+03  1.16812E+04  1.23745E+04  1.56160E+03  1.65731E+04
 -7.37544E+03  1.40438E+04 -9.40415E+03  4.26960E+03 -6.48714E+03 -8.45261E+02 -2.48669E+03 -1.92605E+03
 -7.28972E+02  4.46102E+01 -3.10584E+03  3.63211E+03 -6.01357E+03  2.57880E+03 -9.56851E+03 -1.21632E+03
 -6.31240E+03 -9.11998E+03 -7.98792E+01 -1.35998E+04  9.12506E+03 -1.33756E+04  1.34394E+04 -3.35978E+03
  1.38866E+04  6.40984E+03  6.84574E+03  1.15454E+04 -2.65157E+03  1.32296E+04 -9.89104E+03  8.23618E+03
 -1.30708E+04  6.19252E+02 -9.37726E+03 -8.41538E+03 -9.85954E+02 -1.17506E+04  6.14532E+03 -8.05222E+03
  9.00199E+03 -2.66758E+03  6.25664E+03  2.34350E+03  1.60637E+03  4.32051E+03  1.28992E+03  1.44617E+03
  2.08202E+03  1.96593E+03  3.24543E+03  1.67858E+03  4.15319E+03  4.87351E+03  3.92583E+03  6.88739E+03
 -2.33553E+03  1.06458E+04 -9.75283E+03  1.11147E+04 -1.47598E+04  2.93986E+03 -1.44259E+04 -5.51343E+03
 -6.40550E+03 -1.41097E+04  1.62620E+03 -1.53624E+04  8.70414E+03 -9.68550E+03  1.14761E+04 -1.68089E+03
  8.56097E+03  5.67277E+03  1.75663E+03  7.66797E+03 -3.74468E+03  4.82537E+03 -5.91622E+03 -1.52666E+03
 -3.21305E+03 -5.46974E+03  3.09706E+03 -6.73253E+03  5.99484E+03 -2.90757E+03  5.02878E+03  7.41984E+02
  3.57089E+03  2.06829E+03  1.41685E+03  2.07439E+03 -7.29345E+02  2.16578E+03  1.09721E+03 -6.00098E+02
  2.21845E+03 -6.71871E+02  6.18058E+03  1.97472E+03  2.88407E+03  7.66258E+03 -9.77638E+02  9.10645E+03
 -6.49163E+03  6.57749E+03 -8.77045E+03  1.84645E+03 -8.28444E+03 -4.06072E+03 -2.79242E+03 -5.69462E+03
  6.47651E+02 -5.58566E+03  2.81267E+03 -2.74274E+03  3.08248E+03  3.24215E+03 -1.54865E+03  4.10957E+03
 -5.83375E+03  2.87285E+03 -7.21141E+03 -3.14115E+03 -3.50355E+03 -7.89599E+03  1.25684E+03 -7.11430E+03
  4.78971E+03 -4.46919E+03  5.45588E+03 -6.24927E+02  4.39072E+03  1.80099E+03  5.70087E+02  4.37821E+03
 -2.92939E+03  1.42182E+03 -3.09289E+03 -1.95939E+03  7.62566E+02 -5.52792E+03  7.68536E+03 -4.72219E+03
  8.55479E+03  4.60858E+02  9.07937E+03  5.02957E+03  3.30488E+03  8.51830E+03 -3.16113E+03  8.20963E+03
 -6.74322E+03  4.03183E+03 -7.91661E+03 -6.48156E+02 -3.82730E+03 -5.54036E+03  1.42064E+03 -6.04569E+03
  6.20649E+03 -2.97231E+03  4.27196E+03  2.76442E+03  1.49445E+03  4.77612E+03 -5.32247E+02  4.65227E+03
 -2.73942E+03  3.11014E+03 -2.44620E+03  1.28081E+03 -1.45341E+03  1.46674E+03 -1.24744E+03  1.84362E+03
 -2.89599E+03  2.90667E+03 -6.83568E+03  2.68400E+03 -7.71251E+03 -4.05118E+02 -9.68756E+03 -6.07651E+03
 -5.73910E+03 -1.17800E+04  1.98400E+03 -1.28143E+04  8.23582E+03 -1.02604E+04  1.30461E+04 -3.55632E+03
  1.18081E+04  1.49973E+03  7.46521E+03  8.63916E+03  3.29509E+02  9.59927E+03 -3.96803E+03  6.51949E+03
 -3.91234E+03  3.26328E+03 -3.04605E+03 -1.35264E+03 -7.69448E+02 -2.32101E+02 -1.41742E+03 -1.02422E+01
 -2.22333E+03  7.02911E+02 -1.88810E+03 -9.60732E+02 -7.53884E+02 -1.66094E+03 -2.68125E+01 -3.21854E+03
  4.57843E+03 -3.54771E+03  4.92211E+03  4.41294E-01  6.76489E+03  5.18000E+03  1.49439E+03  8.62281E+03
 -4.53713E+03  1.05207E+04 -1.01392E+04  5.72375E+03 -1.10782E+04 -9.30531E+02 -9.01631E+03 -7.44973E+03
 -3.11733E+03 -9.74284E+03  2.07875E+03 -8.64485E+03  5.43149E+03 -4.90676E+03  5.32163E+03  1.11972E+02
  2.97578E+03  2.94724E+03 -3.54584E+02  3.04383E+03 -2.20993E+03 -1.40555E+02 -4.59817E+02 -2.40910E+03
  2.34896E+03 -6.13051E+02  3.64658E+03  8.48844E+02  1.97638E+03  3.18085E+03  7.32654E+02  4.18260E+03
 -4.42839E+03  4.18932E+03 -6.14120E+03  5.07172E+02 -5.61742E+03 -3.91762E+03 -7.23614E+02 -7.29835E+03
  3.54678E+03 -6.68860E+03  7.32622E+03 -2.33394E+03  6.07748E+03  1.06158E+03  4.13739E+03  5.15519E+03
  7.68721E+02  5.70573E+03 -2.18571E+03  4.56572E+03 -3.19730E+03  2.72379E+03 -3.46695E+03  6.87017E+02
 -7.02667E+02  1.67790E+02 -2.06774E+03  1.09475E+03 -2.70460E+03  8.95347E+02 -4.70574E+03 -1.17670E+03
 -4.49648E+03 -3.44470E+03 -9.81684E+02 -6.01068E+03  3.54363E+03 -5.69194E+03  5.46496E+03 -2.55672E+03
  6.44358E+03  3.77242E+02  2.96085E+03  4.13813E+03  2.38427E+02  6.71039E+03 -4.57153E+03  4.72350E+03
