 $NMID ID='MM_0lb_SNR400_10hz_g45_59.RAW', FMTDAT='(8E13.5)'
 TRAMP=1., VOLUME=1. $END
  3.09364E+05  6.06769E+02  3.37884E+05  2.51053E+05  8.47012E+04  3.38246E+05 -1.32638E+05  2.51917E+05
 -1.90298E+05  8.37381E+04 -1.11820E+05 -3.19564E+04  1.20454E+02 -5.08399E+04  5.37696E+04  1.65293E+02
  3.49169E+04  5.22725E+04 -1.66981E+04  7.60525E+04 -6.15843E+04  6.37508E+04 -8.49055E+04  3.27457E+04
 -8.15556E+04 -1.14676E+04 -5.74478E+04 -5.20403E+04 -1.53921E+04 -7.00286E+04  2.80143E+04 -4.62881E+04
  4.06586E+04  3.46348E+03  1.61121E+04  4.78889E+04 -3.36066E+04  4.71510E+04 -6.75924E+04  4.53825E+02
 -5.37562E+04 -5.79428E+04 -7.27997E+03 -7.82135E+04  3.43198E+04 -5.61726E+04  4.89877E+04 -1.82851E+04
  4.44663E+04  1.17549E+04  3.23850E+04  2.60980E+04  1.55822E+04  3.05437E+04 -5.56514E+03  2.80365E+04
 -2.25773E+04  1.15026E+04 -1.86111E+04 -5.55406E+03  6.25940E+03 -7.31612E+03  2.39683E+04  1.30510E+04
  7.21693E+03  3.62969E+04 -3.34657E+04  3.69844E+04 -6.48695E+04  1.43999E+03 -5.89353E+04 -4.35136E+04
 -1.17770E+04 -6.51315E+04  4.12464E+04 -4.61852E+04  6.06618E+04 -2.69307E+03  3.66877E+04  3.42144E+04
 -5.78343E+03  3.88833E+04 -3.17475E+04  1.77162E+04 -3.20908E+04 -3.45578E+03 -1.81392E+04 -1.05879E+04
 -9.22865E+03 -1.48880E+04 -8.82150E+02 -1.94857E+04  8.15727E+03 -2.32895E+04  1.58558E+04 -1.28945E+04
  1.08416E+04  5.71479E+03 -9.35136E+03  1.29409E+04 -2.22515E+04 -5.84817E+03 -9.10230E+03 -3.65885E+04
  2.41824E+04 -4.61827E+04  4.99664E+04 -1.99093E+04  4.73182E+04  2.07950E+04  1.61888E+04  4.59856E+04
 -1.67953E+04  3.54725E+04 -2.69522E+04  2.49603E+03 -1.16442E+04 -2.91691E+04  2.11514E+04 -3.64627E+04
  4.34841E+04 -9.61541E+03  3.89457E+04  2.47812E+04  2.01905E+04  5.01965E+04 -8.30466E+03  5.46378E+04
 -3.49440E+04  3.66296E+04 -4.59352E+04  1.02163E+04 -4.60216E+04 -1.76494E+04 -2.58216E+04 -4.06616E+04
  8.01081E+03 -4.13185E+04  3.35885E+04 -1.62031E+04  3.11072E+04  1.17365E+04  4.73496E+03  2.06964E+04
 -1.41953E+04  9.31101E+03 -1.11103E+04 -7.08344E+03  4.96523E+03 -1.10154E+04  1.91327E+04  5.67712E+03
  1.50081E+04  2.27835E+04 -5.55084E+03  2.59914E+04 -2.28117E+04  1.38533E+04 -3.04031E+04 -3.37744E+03
 -2.38730E+04 -1.83046E+04 -1.07550E+04 -2.37281E+04  4.24661E+03 -2.32960E+04  1.92859E+04 -2.13873E+04
  2.95536E+04 -1.41795E+04  3.70199E+04  4.12858E+03  2.62489E+04  2.31434E+04  4.59938E+03  3.93449E+04
 -1.95504E+04  3.27317E+04 -3.03320E+04  1.07126E+04 -2.21751E+04 -1.06156E+04 -4.27382E+03 -1.36244E+04
  1.54984E+03 -2.12359E+03 -6.32214E+03  8.46962E+03 -1.91196E+04  5.93239E+03 -1.87891E+04 -8.92881E+03
 -1.10666E+04 -2.24214E+04  5.19005E+03 -2.68900E+04  1.76117E+04 -1.87375E+04  2.18666E+04 -2.25479E+03
  1.37590E+04  1.53949E+04 -1.11482E+03  2.25562E+04 -1.55609E+04  1.24349E+04 -2.19303E+04 -4.49358E+03
 -1.63051E+04 -1.93203E+04 -1.87058E+03 -2.65487E+04  1.18266E+04 -2.22052E+04  2.19846E+04 -1.06182E+04
  2.01213E+04 -4.82979E+02  1.47869E+04  5.26762E+03  8.01734E+03  1.57116E+03  1.09091E+04 -2.56491E+03
  1.99555E+04  2.77062E+03  2.35972E+04  1.76457E+04  1.62975E+04  3.52750E+04 -2.86802E+03  4.12054E+04
 -2.38396E+04  3.40658E+04 -3.90550E+04  1.79643E+04 -4.19228E+04 -2.44903E+03 -3.42393E+04 -2.37595E+04
 -1.34199E+04 -3.43709E+04  1.23566E+04 -3.03423E+04  2.52141E+04 -1.40114E+04  2.25864E+04  6.35516E+03
  8.02118E+03  1.70916E+04 -1.07586E+04  1.47653E+04 -1.85981E+04  2.98260E+03 -1.38878E+04 -1.11778E+04
 -5.62797E+02 -1.76099E+04  9.80893E+03 -1.35176E+04  1.29070E+04 -8.76282E+02  3.17940E+03  8.05980E+03
 -8.29841E+03  3.92992E+03 -8.31693E+03 -6.78742E+03 -1.69571E+03 -1.65070E+04  1.17990E+04 -1.82435E+04
  2.03920E+04 -1.02996E+04  2.32230E+04  2.95827E+03  2.10306E+04  1.72878E+04  9.36797E+03  2.61788E+04
 -4.94174E+03  2.83375E+04 -1.84620E+04  1.79624E+04 -2.08202E+04  3.94541E+03 -1.42706E+04 -4.78036E+03
 -5.66403E+03 -7.19090E+03 -1.03908E+02  4.96423E+02 -2.82824E+03  3.79665E+03 -6.41572E+03  5.45845E+03
 -1.24466E+04 -9.70899E+02 -1.32893E+04 -1.06852E+04 -6.09723E+03 -1.81447E+04  5.67208E+03 -1.47729E+04
  1.15883E+04 -6.67413E+03  8.48533E+03  3.57298E+03 -7.03513E+01  5.76500E+03 -7.31194E+03  2.53112E+02
 -6.76829E+03 -9.50931E+03 -1.29125E+03 -1.36271E+04  8.49921E+03 -1.45354E+04  1.83623E+04 -8.25326E+03
  2.15560E+04  2.13253E+03  1.58252E+04  1.30292E+04  2.46571E+03  1.71708E+04 -8.83489E+03  1.37891E+04
 -1.20453E+04  3.31489E+03 -5.76496E+03 -2.67495E+03  2.30527E+03 -4.72859E+03  7.55387E+03 -9.49448E+02
  6.86640E+03  6.48504E+03  1.02119E+03  1.14248E+04 -8.11290E+03  1.07556E+04 -1.44297E+04  2.62456E+03
 -1.07069E+04 -7.75034E+03  1.94422E+02 -1.21748E+04  7.68878E+03 -6.24792E+03  7.73779E+03  3.61443E+03
  1.01272E+03  9.33709E+03 -7.44245E+03  1.02109E+04 -1.19885E+04  4.44735E+03 -1.23584E+04 -3.56833E+03
 -6.29662E+03 -1.41392E+04  4.20779E+03 -1.66551E+04  1.37045E+04 -1.03216E+04  1.43796E+04  2.64235E+03
  9.24057E+03  1.16283E+04 -6.96439E+02  1.44338E+04 -9.84271E+03  7.71740E+03 -1.09680E+04 -1.41816E+03
 -9.48516E+03 -9.95192E+03 -1.41998E+03 -1.07869E+04  6.24397E+03 -9.24595E+03  6.98033E+03 -2.32104E+03
  4.61568E+03  1.57978E+03 -1.00517E+03  2.18755E+03 -1.24253E+02 -3.02008E+03  2.15590E+03 -5.44063E+03
  1.05427E+04 -3.65158E+03  1.41526E+04  1.97942E+03  1.31512E+04  9.35450E+03  9.24626E+03  1.81094E+04
 -3.74074E+03  2.07214E+04 -1.73572E+04  1.56638E+04 -2.35184E+04  2.09009E+03 -1.82030E+04 -7.48660E+03
 -9.10204E+03 -1.51080E+04 -1.04429E+03 -1.36218E+04  5.32712E+03 -7.27863E+03  4.25239E+03 -5.10839E+03
  3.14260E+03 -2.32150E+03  3.90095E+03 -3.74152E+03  4.79862E+03 -3.74345E+03  7.13558E+03 -1.05220E+03
  1.04749E+04  2.48680E+03  5.35013E+03  7.51833E+03 -2.27228E+03  9.05820E+03 -9.42869E+03  6.93327E+03
 -1.33446E+04 -1.41089E+03 -8.43968E+03 -8.86990E+03 -1.13360E+03 -1.35928E+04  7.53442E+03 -1.46769E+04
  1.45068E+04 -7.84379E+03  1.72725E+04  2.25248E+03  1.21195E+04  1.21925E+04  1.74633E+03  1.56076E+04
 -6.39727E+03  1.24664E+04 -9.22001E+03  4.90270E+03 -5.94768E+03 -1.64896E+03 -2.55302E+03 -2.46791E+03
 -8.44503E+02  5.98331E+01 -2.73081E+03  3.32121E+03 -4.55015E+03  1.97052E+03 -8.73246E+03 -1.11757E+03
 -6.62661E+03 -9.24463E+03 -1.46066E+01 -1.23625E+04  7.92349E+03 -1.18579E+04  1.34910E+04 -3.33161E+03
  1.30563E+04  5.34692E+03  6.08702E+03  1.14398E+04 -2.29698E+03  1.29341E+04 -9.33649E+03  7.91402E+03
 -1.17538E+04  1.03313E+03 -1.00903E+04 -7.12379E+03 -4.57028E+02 -1.16571E+04  5.42805E+03 -7.63380E+03
  7.98199E+03 -3.45177E+03  5.83438E+03  2.02481E+03  2.38915E+03  4.09275E+03  1.65169E+03  1.60411E+03
  2.06953E+03  1.24649E+03  3.15260E+03  1.70247E+03  3.96270E+03  5.04900E+03  3.63757E+03  6.50589E+03
 -2.59496E+03  1.00765E+04 -9.35753E+03  1.02691E+04 -1.30888E+04  2.20766E+03 -1.36930E+04 -4.71924E+03
 -6.28486E+03 -1.28574E+04  2.04235E+03 -1.50303E+04  7.62986E+03 -9.14126E+03  1.05759E+04 -2.54230E+03
  8.10826E+03  4.81390E+03  2.12729E+03  7.87263E+03 -3.24335E+03  4.92062E+03 -5.62768E+03  7.33518E+01
 -3.34592E+03 -6.04841E+03  2.65283E+03 -5.25985E+03  6.37166E+03 -3.41452E+03  4.90320E+03  1.28376E+03
  3.88052E+03  2.12335E+03  1.45130E+03  2.15320E+03 -4.00291E+02  1.80314E+03  1.70560E+03  1.50617E+02
  2.06899E+03 -5.94238E+02  5.66585E+03  1.98660E+03  3.32695E+03  7.01911E+03 -9.11090E+02  9.45009E+03
 -5.94652E+03  5.74937E+03 -7.72098E+03  1.94726E+03 -7.12521E+03 -2.85831E+03 -2.64129E+03 -5.14285E+03
  9.22017E+02 -5.05370E+03  3.66149E+03 -1.94232E+03  3.14526E+03  1.95601E+03 -1.34811E+03  4.12601E+03
 -5.83307E+03  2.78102E+03 -5.73035E+03 -3.30316E+03 -3.22222E+03 -7.40114E+03  8.12425E+02 -6.47275E+03
  3.93273E+03 -4.96764E+03  5.36997E+03 -2.66673E+02  3.65052E+03  1.43093E+03  5.99888E+02  3.11998E+03
 -2.02698E+03  9.03634E+02 -2.37047E+03 -2.96120E+03  1.24139E+03 -5.47024E+03  6.35092E+03 -4.76164E+03
  7.49672E+03  5.37686E+02  7.33517E+03  5.44963E+03  3.11905E+03  8.67939E+03 -3.33240E+03  7.98346E+03
 -6.80217E+03  2.72723E+03 -6.99733E+03 -9.44002E+02 -3.74358E+03 -5.42379E+03  1.49321E+03 -4.95850E+03
  5.66422E+03 -2.57374E+03  5.12753E+03  2.19433E+03  1.43170E+03  4.78729E+03 -2.75358E+02  3.53840E+03
 -1.87915E+03  2.62456E+03 -1.26048E+03  6.45446E+02 -1.16700E+01  8.87610E+02 -1.39546E+03  1.87064E+03
 -1.79231E+03  3.94814E+03 -6.21676E+03  2.86918E+03 -8.01863E+03 -3.66819E+02 -8.93624E+03 -5.41014E+03
 -5.16788E+03 -1.07745E+04  2.08916E+03 -1.22395E+04  7.80409E+03 -1.06239E+04  1.24363E+04 -3.44373E+03
  1.14203E+04  2.24941E+03  6.19563E+03  7.77158E+03  2.58361E+02  8.62490E+03 -3.94578E+03  6.79173E+03
 -5.25042E+03  2.44984E+03 -2.84628E+03 -7.92264E+02 -8.95685E+02 -7.06939E+02 -9.22016E+02  2.59103E+02
 -1.62671E+03  4.55499E+02 -2.44633E+03 -2.73767E+02 -4.81329E+02 -2.14956E+03  7.22191E+02 -2.97535E+03
  3.83996E+03 -2.92630E+03  5.24310E+03  1.71667E+02  5.89825E+03  3.68710E+03  1.33164E+03  8.59774E+03
 -4.08675E+03  1.04711E+04 -9.27240E+03  5.62836E+03 -9.86651E+03 -1.48047E+03 -7.96268E+03 -6.75176E+03
 -3.68650E+03 -8.31065E+03  2.78211E+03 -7.61347E+03  4.92695E+03 -4.34816E+03  5.50215E+03  1.28146E+01
  2.65933E+03  2.90990E+03 -3.00950E+01  2.27425E+03 -1.60053E+03 -9.27603E+02 -1.10358E+03 -1.50585E+03
  3.44379E+03 -1.25605E+03  3.06664E+03  1.76115E+03  2.33576E+03  2.58057E+03 -4.84248E+02  4.51090E+03
 -4.15443E+03  4.00158E+03 -5.71346E+03  5.42182E+02 -5.48376E+03 -3.42783E+03 -1.16188E+03 -7.78791E+03
  3.57309E+03 -5.51780E+03  6.26943E+03 -1.62847E+03  6.50796E+03  1.63324E+03  3.09995E+03  5.12434E+03
  7.77016E+02  5.03967E+03 -1.75890E+03  4.46201E+03 -3.51326E+03  2.51216E+03 -3.07184E+03  1.18275E+03
 -1.17287E+03 -3.65394E+02 -1.26710E+03 -2.16359E+02 -3.27712E+03  5.07920E+02 -4.41835E+03 -1.41664E+03
 -4.65038E+03 -2.46397E+03 -6.12445E+02 -6.07972E+03  2.44075E+03 -6.02963E+03  4.77444E+03 -2.21590E+03
  6.00021E+03  9.22775E+02  2.70785E+03  4.77527E+03 -5.57131E+02  6.05358E+03 -4.32927E+03  3.54472E+03
