 $NMID ID='MM_0lb_SNR400_20hz_g45_44.RAW', FMTDAT='(8E13.5)'
 TRAMP=1., VOLUME=1. $END
  3.09794E+05  3.39936E+02  3.37055E+05  2.50380E+05  8.40926E+04  3.37162E+05 -1.32387E+05  2.50166E+05
 -1.89029E+05  8.23649E+04 -1.10584E+05 -3.28202E+04  1.78447E+03 -5.07561E+04  5.40395E+04  9.77312E+01
  3.45607E+04  5.29584E+04 -1.74660E+04  7.48806E+04 -6.04436E+04  6.21803E+04 -8.30820E+04  3.11036E+04
 -7.87825E+04 -1.10493E+04 -5.55721E+04 -4.95661E+04 -1.51529E+04 -6.77068E+04  2.64342E+04 -4.41915E+04
  3.89516E+04  4.28199E+03  1.53836E+04  4.68970E+04 -3.37045E+04  4.55278E+04 -6.51334E+04 -8.26578E+02
 -5.10824E+04 -5.57021E+04 -6.37539E+03 -7.41695E+04  3.32774E+04 -5.24952E+04  4.58900E+04 -1.59575E+04
  4.11492E+04  1.04494E+04  3.00580E+04  2.41785E+04  1.55150E+04  2.76422E+04 -4.10916E+03  2.63470E+04
 -2.19363E+04  1.31571E+04 -1.94797E+04 -3.58010E+03  3.80922E+03 -7.65761E+03  2.10746E+04  1.04908E+04
  7.39603E+03  3.23470E+04 -2.98503E+04  3.33908E+04 -6.02676E+04  2.41070E+03 -5.50035E+04 -4.08886E+04
 -1.22760E+04 -5.99361E+04  3.73280E+04 -4.27122E+04  5.44000E+04 -1.57724E+03  3.09237E+04  2.99064E+04
 -6.83339E+03  3.22267E+04 -2.77799E+04  1.24944E+04 -2.65935E+04 -5.50634E+03 -1.32249E+04 -9.94561E+03
 -7.00582E+03 -1.08928E+04 -6.46333E+02 -1.64258E+04  6.71393E+03 -2.24994E+04  1.51161E+04 -1.37516E+04
  1.23335E+04  3.86608E+03 -6.00296E+03  1.27161E+04 -1.89624E+04 -2.05914E+03 -7.92904E+03 -2.98164E+04
  2.02679E+04 -3.97475E+04  4.35981E+04 -1.82148E+04  4.04307E+04  1.80191E+04  1.40889E+04  4.10588E+04
 -1.45485E+04  3.03420E+04 -2.32806E+04  4.75590E+02 -8.01976E+03 -2.58890E+04  2.04692E+04 -3.03547E+04
  3.74842E+04 -6.92614E+03  3.03512E+04  2.18881E+04  1.44291E+04  4.14385E+04 -7.78717E+03  4.39538E+04
 -2.74653E+04  2.87594E+04 -3.53579E+04  7.84737E+03 -3.67959E+04 -1.43034E+04 -2.04777E+04 -3.31398E+04
  6.74573E+03 -3.26877E+04  2.81844E+04 -1.20619E+04  2.56229E+04  1.02212E+04  2.61451E+03  1.78354E+04
 -1.27789E+04  7.16931E+03 -9.48487E+03 -7.67941E+03  5.56900E+03 -1.02189E+04  1.71193E+04  6.54390E+03
  1.21143E+04  2.08593E+04 -6.23869E+03  2.28239E+04 -2.09956E+04  8.56589E+03 -2.42883E+04 -7.07933E+03
 -1.54340E+04 -1.64183E+04 -4.96336E+03 -1.54545E+04  3.68507E+03 -1.31217E+04  1.14982E+04 -1.32491E+04
  1.95472E+04 -1.12066E+04  2.66707E+04  5.80454E+02  2.06139E+04  1.51946E+04  4.29250E+03  3.11573E+04
 -1.57091E+04  2.65088E+04 -2.51752E+04  8.82288E+03 -1.93435E+04 -9.94701E+03 -3.98552E+03 -1.40282E+04
  3.04676E+03 -4.31710E+03 -2.02033E+03  4.60740E+03 -1.21684E+04  4.93441E+03 -1.26907E+04 -4.55717E+03
 -8.04962E+03 -1.44536E+04  4.62569E+03 -1.82618E+04  1.16920E+04 -1.31010E+04  1.32052E+04 -1.52915E+03
  8.02235E+03  1.03510E+04 -6.31348E+02  1.47718E+04 -9.32705E+03  7.96191E+03 -1.41880E+04 -3.06229E+03
 -1.04175E+04 -1.39729E+04 -1.27191E+03 -1.77450E+04  7.67390E+03 -1.42708E+04  1.46967E+04 -6.72778E+03
  1.37967E+04  2.89456E+02  1.00849E+04  3.27376E+03  4.32484E+03  5.08379E+02  6.78822E+03 -9.35911E+02
  1.25916E+04  2.75720E+03  1.30830E+04  1.17792E+04  7.92975E+03  2.28223E+04 -2.99204E+03  2.43459E+04
 -1.42652E+04  1.82268E+04 -2.20037E+04  8.50450E+03 -2.20506E+04 -1.10789E+03 -1.91335E+04 -1.25599E+04
 -9.83910E+03 -1.83544E+04  6.16011E+03 -1.72610E+04  1.51295E+04 -1.04177E+04  1.44282E+04  2.39012E+03
  6.03523E+03  1.04150E+04 -6.60197E+03  1.00399E+04 -1.24785E+04  2.47009E+03 -9.65796E+03 -6.87996E+03
 -2.28654E+02 -1.07446E+04  5.56734E+03 -8.77505E+03  7.21889E+03 -1.42607E+03  1.71708E+03  3.91452E+03
 -5.43000E+03  1.08528E+03 -2.98667E+03 -3.84504E+03  7.48959E+02 -9.25576E+03  7.38332E+03 -8.76635E+03
  1.11233E+04 -3.95422E+03  9.66113E+03  2.86763E+03  9.07419E+03  7.75986E+03  4.03507E+03  1.23675E+04
 -1.22169E+03  1.38822E+04 -8.46072E+03  9.48068E+03 -9.85262E+03  2.20824E+03 -7.52240E+03 -1.74612E+03
 -4.17258E+03 -3.01093E+03 -1.02151E+03  1.64572E+03 -2.23620E+03  1.70026E+03 -3.18913E+03  3.51717E+03
 -6.99837E+03  1.26325E+01 -7.78236E+03 -6.51927E+03 -3.30111E+03 -1.00335E+04  3.29663E+03 -7.83272E+03
  6.64130E+03 -3.38058E+03  5.22053E+03  1.39875E+03  9.93982E+02  2.29207E+03 -3.56093E+03 -2.98379E+02
 -3.15627E+03 -5.25906E+03 -1.00667E+03 -6.85401E+03  2.98139E+03 -6.95767E+03  9.02706E+03 -3.23008E+03
  1.06231E+04  2.57207E+02  7.50883E+03  5.52392E+03  2.04776E+03  7.03663E+03 -4.62634E+03  7.17957E+03
 -5.81782E+03  2.40347E+03 -2.59638E+03 -1.07443E+03  1.32459E+03 -1.09026E+03  4.11082E+03 -8.86788E+02
  3.66879E+03  2.69247E+03  1.13978E+03  5.65517E+03 -4.00650E+03  5.91900E+03 -7.19654E+03  1.98913E+03
 -3.70203E+03 -3.61011E+03  5.43644E+02 -6.38590E+03  3.46637E+03 -2.88918E+03  3.04198E+03  4.93600E+02
  4.70593E+02  2.06673E+03 -3.65380E+03  4.76044E+03 -3.95160E+03  2.42564E+03 -3.21975E+03 -8.16946E+02
 -2.37102E+03 -4.92821E+03  5.14638E+02 -5.81817E+03  4.58052E+03 -3.95434E+03  5.28261E+03  6.43205E+02
  3.61755E+03  3.90688E+03  8.15461E+02  6.26905E+03 -4.37498E+03  3.92713E+03 -4.58510E+03  3.85785E+01
 -4.92552E+03 -4.83049E+03 -1.76853E+03 -3.92232E+03  1.75570E+03 -4.24305E+03  2.27253E+03 -3.04395E+03
  2.69693E+03 -9.04270E+01 -5.42428E+02  7.49952E+02  8.17222E+02 -2.43537E+02 -1.94731E+02 -1.03507E+03
  3.04887E+03 -5.07741E+02  4.37028E+03 -7.37142E+01  4.75318E+03  2.05848E+03  4.33734E+03  5.54915E+03
 -2.02793E+02  7.24900E+03 -6.82042E+03  5.12904E+03 -8.16360E+03  6.06742E+02 -6.42035E+03 -1.60030E+03
 -3.27460E+03 -5.68061E+03 -4.46745E+02 -4.27218E+03  2.33954E+03 -1.49996E+03  1.80770E+03 -1.83360E+03
  9.19799E+02 -1.20076E+03  2.63812E+03 -2.31025E+03  2.90484E+03 -1.28158E+03  3.90313E+03  8.70295E+02
  4.08485E+03  1.13746E+03  8.29347E+02  3.00477E+03 -1.83458E+03  1.80241E+03 -3.57877E+03  1.99575E+03
 -4.25672E+03 -6.86107E+02 -1.09698E+03 -2.40033E+03  1.03712E+03 -3.76695E+03  2.29962E+03 -4.77521E+03
  4.29185E+03 -2.60045E+03  5.18343E+03  1.38840E+02  4.48178E+03  3.50338E+03  1.16654E+03  4.86533E+03
 -1.73709E+03  4.80032E+03 -2.57206E+03  1.61993E+03 -1.09719E+03 -1.09148E+03 -3.98408E+02 -5.55283E+02
 -4.13519E+02  2.66993E+02 -7.38868E+02  1.89547E+03 -2.32498E+03  8.73925E+02 -3.56935E+03 -7.10816E+02
 -1.08244E+03 -3.26699E+03  1.03197E+03 -3.77693E+03  2.31745E+03 -3.76289E+03  3.11362E+03 -1.13716E+03
  2.78870E+03  2.59022E+03  1.27652E+03  2.91947E+03 -3.38992E+02  3.88043E+03 -1.74847E+03  2.20615E+03
 -3.29418E+03  3.77212E+02 -3.00055E+03 -1.74273E+03 -2.31233E+01 -2.74762E+03  1.61230E+03 -1.81399E+03
  2.11151E+03 -9.62316E+02  1.82035E+03  2.24641E+01  5.93031E+02  1.19810E+03  7.56036E+02  6.71802E+02
  1.98462E+03  6.96383E+02  9.38220E+02  1.13068E+03  1.13705E+03  2.10499E+03  1.40146E+03  1.71851E+03
 -1.12283E+03  2.10409E+03 -1.79457E+03  3.51498E+03 -2.08041E+03  1.15794E+03 -3.07729E+03  1.95664E+02
 -1.17059E+03 -2.95380E+03  2.62847E+02 -4.02791E+03  9.36574E+02 -1.84967E+03  2.61313E+03 -1.11717E+03
  1.92691E+03  1.74105E+03 -1.40549E+02  1.71638E+03 -6.94538E+02  9.83875E+02 -4.50851E+02 -9.30141E+01
 -5.95442E+02 -1.34279E+03  9.17151E+02 -1.01887E+03  1.24934E+03 -1.20404E+03  7.78956E+02  3.61884E+02
  2.68722E+02  2.99976E+02  8.89490E+02 -2.75931E+02 -3.02202E+02  5.36035E+02  1.39032E+03 -1.21777E+02
  1.63030E+02 -3.14542E+02  2.03819E+03  2.21947E+02  1.29005E+02  2.29247E+03  1.09701E+02  2.44991E+03
 -1.08246E+03  5.71055E+02 -1.48409E+03  6.20017E+02 -1.57509E+03 -1.04721E+03 -2.64655E+02 -3.97015E+02
  5.35265E+02 -1.13198E+03  3.63905E+02 -2.48581E+02  6.96018E+02  9.43974E+02 -8.92369E+02  7.71043E+02
 -1.38344E+03  4.47102E+02 -4.71273E+02 -1.16640E+03 -8.01219E+02 -2.00172E+03  1.16247E+02 -7.74804E+02
  1.83950E+02  6.16088E+01 -1.97326E+02  4.24484E+02  5.13769E+02 -2.28362E+02  1.70499E+02  7.17759E+02
 -3.27942E+02  4.24271E+02 -9.44563E+02 -3.33827E+02  1.78079E+02  8.31266E+00  1.29012E+03 -7.67603E+02
  1.15391E+03  5.20766E+01  2.57413E+03 -5.75474E+01  1.09889E+03  1.37591E+03  2.48800E+02  9.94298E+02
 -1.23229E+03 -2.75460E+02 -1.21489E+03  3.25059E+02 -6.21386E+02 -9.71398E+02  3.16332E+02 -1.92786E+02
  1.03991E+03  1.26881E+02  3.85280E+02  6.10349E+02  2.03752E+02  6.75851E+02  9.32476E+01  4.87477E+02
  1.53150E+02  7.96209E+02 -5.51081E+02 -1.23863E+02  8.87596E+01  3.94663E+02 -3.87179E+02  7.93931E+02
 -5.89119E+02  5.32931E+02 -1.57353E+03  2.51983E+02 -1.64867E+03  6.18226E+02 -1.60992E+03 -1.15921E+03
 -7.81335E+02 -1.75627E+03  3.40888E+02 -2.33962E+03  3.74261E+02 -1.86805E+03  2.03162E+03 -3.42928E+02
  1.84771E+03  1.65351E+02  1.16169E+03  1.25562E+03 -6.12372E+02  1.18196E+03 -2.56196E+02  1.08756E+03
 -8.35169E+02  8.27713E+02 -4.36289E+02 -3.11352E+02 -3.61759E+02  8.07099E+02 -8.68668E+02  1.94632E+02
 -9.93180E+02 -6.33807E+01 -5.11248E+02  6.64366E+02  2.26387E+02 -2.31598E+02 -1.70531E+02 -6.07212E+02
  1.19938E+03 -4.99677E+02 -6.04817E+01  4.05996E+02  1.18297E+03  8.79364E+02 -5.54944E+02  6.06786E+02
 -3.86945E+02  1.75248E+03 -1.30926E+03  7.18826E+02 -1.11162E+03  2.80911E+02 -8.13397E+02 -8.33431E+02
 -5.57465E+02 -3.85274E+02 -4.54831E+02 -3.13608E+02  5.30241E+02 -2.98836E+02 -2.07387E+01  5.65190E+00
  9.80506E+02 -4.88877E+02  6.00908E+02 -2.74572E+02 -1.20153E+01  2.83357E+02 -7.62943E+01 -1.44063E+02
  1.91652E+02 -2.70419E+01  2.38015E+01  8.85635E+02  2.75037E+02 -2.96868E+02  8.21229E+02 -7.62331E+01
 -7.71493E+01  1.02165E+03 -2.31844E+02 -3.85503E+02  1.20534E+02  9.91833E+01 -3.04099E+01 -4.73223E+02
  1.58646E+02 -7.05240E+02  4.55810E+02  1.53324E+02  8.89939E+02 -7.77847E+02  5.08349E+02  4.20159E+02
  2.25450E+01  9.17399E+01  1.89036E+02  7.20175E+02 -1.73559E+02  4.16696E+02 -3.09211E+02  2.22895E+02
  2.45574E+02  2.02182E+01 -2.48791E+02 -2.74254E+02 -9.61446E+02  3.49142E+02 -4.82782E+02 -4.45818E+02
 -1.35533E+03  6.81237E+02 -5.35349E+01 -9.77287E+02  1.67753E+02 -1.43917E+03  5.75774E+02 -5.23202E+02
  4.39165E+02 -2.64861E+02 -5.42488E+02  1.48416E+02  4.98379E+02  1.07484E+03 -1.92356E+02  6.86368E+02
