 $NMID ID='MM_0lb_SNR400_9hz_g45_47.RAW', FMTDAT='(8E13.5)'
 TRAMP=1., VOLUME=1. $END
  3.09362E+05  1.39325E+03  3.37869E+05  2.50356E+05  8.48040E+04  3.38315E+05 -1.32412E+05  2.51972E+05
 -1.90889E+05  8.35426E+04 -1.12900E+05 -3.24102E+04  5.02491E+02 -5.14455E+04  5.39929E+04 -6.58288E+02
  3.48930E+04  5.32824E+04 -1.63984E+04  7.68455E+04 -6.09600E+04  6.42830E+04 -8.63523E+04  3.20431E+04
 -8.25823E+04 -1.13605E+04 -5.83830E+04 -5.25454E+04 -1.51304E+04 -7.10958E+04  2.88868E+04 -4.68465E+04
  4.08582E+04  2.77117E+03  1.67833E+04  4.83921E+04 -3.51574E+04  4.85448E+04 -6.81183E+04  5.76830E+02
 -5.51258E+04 -5.66349E+04 -8.44843E+03 -7.86961E+04  3.53313E+04 -5.62222E+04  4.97216E+04 -1.86979E+04
  4.50365E+04  1.21996E+04  3.30700E+04  2.61877E+04  1.59122E+04  3.07607E+04 -5.36018E+03  2.80890E+04
 -2.20788E+04  1.21733E+04 -1.83086E+04 -6.06053E+03  6.65060E+03 -7.07866E+03  2.31470E+04  1.34485E+04
  7.95424E+03  3.69679E+04 -3.43520E+04  3.67145E+04 -6.53217E+04  1.91394E+03 -5.78892E+04 -4.49874E+04
 -1.30245E+04 -6.52063E+04  4.17834E+04 -4.76680E+04  6.10514E+04 -2.42786E+03  3.61353E+04  3.42874E+04
 -5.78443E+03  3.90294E+04 -3.17478E+04  1.86412E+04 -3.34013E+04 -4.99648E+03 -1.94518E+04 -1.20270E+04
 -9.16377E+03 -1.46764E+04 -1.47871E+02 -1.92846E+04  8.31775E+03 -2.30807E+04  1.60529E+04 -1.32862E+04
  1.01155E+04  6.01082E+03 -1.02872E+04  1.32488E+04 -2.34860E+04 -6.30903E+03 -8.49513E+03 -3.68138E+04
  2.49932E+04 -4.62874E+04  5.15374E+04 -2.04418E+04  4.79987E+04  2.03835E+04  1.73122E+04  4.79724E+04
 -1.65726E+04  3.59831E+04 -2.72348E+04  2.25422E+03 -1.20867E+04 -2.86903E+04  2.15702E+04 -3.73873E+04
  4.42514E+04 -1.04815E+04  3.99491E+04  2.47192E+04  2.04943E+04  5.03666E+04 -8.74026E+03  5.55264E+04
 -3.48010E+04  3.80110E+04 -4.64975E+04  1.09788E+04 -4.66131E+04 -1.88389E+04 -2.59025E+04 -4.18899E+04
  8.20267E+03 -4.18008E+04  3.42693E+04 -1.67227E+04  3.19820E+04  1.19092E+04  5.14338E+03  2.12255E+04
 -1.34700E+04  9.32412E+03 -1.12982E+04 -7.59235E+03  5.47000E+03 -1.10208E+04  1.91929E+04  5.13303E+03
  1.52088E+04  2.27909E+04 -5.18336E+03  2.61774E+04 -2.34711E+04  1.39371E+04 -3.05436E+04 -2.88451E+03
 -2.43806E+04 -1.79221E+04 -1.13667E+04 -2.39231E+04  4.32312E+03 -2.48836E+04  2.03635E+04 -2.29490E+04
  3.17646E+04 -1.44077E+04  3.69884E+04  4.11157E+03  2.63356E+04  2.32793E+04  4.48001E+03  4.15332E+04
 -1.90846E+04  3.36227E+04 -2.97413E+04  1.15643E+04 -2.22048E+04 -9.98994E+03 -5.25487E+03 -1.25370E+04
  1.53155E+03 -1.11160E+03 -7.51986E+03  7.42552E+03 -1.92386E+04  4.92718E+03 -2.01083E+04 -9.23835E+03
 -1.31023E+04 -2.31918E+04  5.89550E+03 -2.72710E+04  1.84835E+04 -2.02855E+04  2.26089E+04 -1.00923E+03
  1.47007E+04  1.53670E+04 -1.79654E+03  2.25980E+04 -1.71530E+04  1.31313E+04 -2.28160E+04 -3.50065E+03
 -1.64420E+04 -1.99308E+04 -1.52279E+03 -2.71942E+04  1.22785E+04 -2.35358E+04  2.28953E+04 -1.14664E+04
  2.18311E+04 -4.04809E+02  1.54778E+04  5.30632E+03  9.48455E+03  1.45811E+03  1.16983E+04 -2.66857E+03
  2.16043E+04  2.96553E+03  2.48423E+04  1.74786E+04  1.68642E+04  3.68871E+04 -3.30826E+03  4.37071E+04
 -2.46357E+04  3.54414E+04 -4.09144E+04  1.77265E+04 -4.42476E+04 -3.69128E+03 -3.51656E+04 -2.53829E+04
 -1.47281E+04 -3.59563E+04  1.32015E+04 -3.16515E+04  2.67132E+04 -1.50506E+04  2.40863E+04  7.84883E+03
  8.40644E+03  1.76998E+04 -1.08968E+04  1.55032E+04 -1.94800E+04  3.06025E+03 -1.56265E+04 -1.33573E+04
 -6.17297E+02 -1.86109E+04  1.06876E+04 -1.42741E+04  1.28891E+04 -1.40500E+03  4.03837E+03  8.25482E+03
 -8.61665E+03  3.64049E+03 -9.19430E+03 -7.52220E+03 -1.11359E+03 -1.81516E+04  1.16112E+04 -1.89781E+04
  2.20254E+04 -1.11634E+04  2.54004E+04  3.35920E+03  2.22338E+04  1.88987E+04  1.00801E+04  2.85442E+04
 -5.31204E+03  3.05452E+04 -1.92513E+04  1.90232E+04 -2.32217E+04  4.40475E+03 -1.51449E+04 -6.14908E+03
 -6.37602E+03 -7.52262E+03 -7.15641E+02  6.49997E+00 -3.38945E+03  3.46950E+03 -6.33462E+03  5.67093E+03
 -1.37259E+04 -6.44677E+02 -1.43582E+04 -1.14869E+04 -5.54616E+03 -1.85694E+04  6.32781E+03 -1.58947E+04
  1.22614E+04 -5.74322E+03  8.43355E+03  3.09126E+03 -3.90118E+02  5.84718E+03 -7.88502E+03 -6.19678E+02
 -7.03556E+03 -1.02508E+04 -5.52278E+02 -1.50863E+04  9.36144E+03 -1.50642E+04  1.93220E+04 -9.04396E+03
  2.21874E+04  2.71218E+03  1.59233E+04  1.36880E+04  3.42998E+03  1.87738E+04 -8.72706E+03  1.55365E+04
 -1.24044E+04  4.23881E+03 -5.97632E+03 -3.20972E+03  1.94105E+03 -4.78255E+03  8.51897E+03 -9.20635E+02
  7.30753E+03  6.61609E+03  1.53804E+03  1.22509E+04 -8.75205E+03  1.12047E+04 -1.52285E+04  2.63923E+03
 -1.00846E+04 -8.64672E+03 -4.31706E+02 -1.27423E+04  8.89802E+03 -6.95114E+03  9.09114E+03  2.77126E+03
  2.27999E+03  9.36350E+03 -7.84062E+03  1.06942E+04 -1.32065E+04  5.24789E+03 -1.32656E+04 -5.11582E+03
 -8.40997E+03 -1.58981E+04  3.60481E+03 -1.77540E+04  1.46438E+04 -1.01196E+04  1.48633E+04  2.88525E+03
  9.41751E+03  1.27012E+04 -1.17935E+03  1.51649E+04 -1.17702E+04  9.31881E+03 -1.22974E+04 -9.76664E+02
 -1.04500E+04 -1.01908E+04 -2.36793E+03 -1.22736E+04  6.63001E+03 -9.68872E+03  6.45215E+03 -3.71979E+03
  4.45784E+03  2.22442E+03 -1.82399E+03  2.02685E+03 -8.83974E+02 -3.25086E+03  2.51986E+03 -7.18695E+03
  1.12987E+04 -4.79349E+03  1.57234E+04  2.24838E+03  1.55028E+04  1.07385E+04  1.10007E+04  2.01780E+04
 -4.41615E+03  2.36514E+04 -1.94851E+04  1.72856E+04 -2.55119E+04  3.97505E+03 -2.03874E+04 -9.45130E+03
 -9.74826E+03 -1.61082E+04 -6.91213E+02 -1.44841E+04  4.72482E+03 -8.21137E+03  4.93245E+03 -4.85270E+03
  3.41450E+03 -3.04475E+03  3.48364E+03 -4.28994E+03  6.27664E+03 -2.40102E+03  7.84911E+03 -1.63213E+03
  9.95764E+03  1.99336E+03  5.51173E+03  9.05819E+03 -2.76566E+03  1.09024E+04 -1.06547E+04  8.08423E+03
 -1.44231E+04 -1.54321E+03 -9.13065E+03 -9.64711E+03 -8.45689E+02 -1.46363E+04  8.37325E+03 -1.45574E+04
  1.58145E+04 -8.31094E+03  1.95264E+04  2.63800E+03  1.24548E+04  1.35128E+04  2.27066E+03  1.77673E+04
 -7.66154E+03  1.41304E+04 -8.97662E+03  4.79968E+03 -7.34631E+03 -1.00826E+03 -2.99770E+03 -2.21258E+03
 -1.88774E+03 -4.47024E+02 -2.58744E+03  2.75063E+03 -6.36693E+03  3.18614E+03 -1.02301E+04 -1.24877E+03
 -6.90835E+03 -9.58580E+03 -2.04316E+02 -1.42327E+04  8.41269E+03 -1.33965E+04  1.52206E+04 -4.64533E+03
  1.38599E+04  7.01775E+03  7.04947E+03  1.27463E+04 -2.46206E+03  1.45689E+04 -1.04551E+04  8.95697E+03
 -1.34999E+04  9.54115E+01 -1.04746E+04 -8.51306E+03 -5.70201E+02 -1.30607E+04  5.78050E+03 -9.24340E+03
  1.02094E+04 -3.02494E+03  6.83342E+03  3.00131E+03  2.54804E+03  4.56010E+03  1.56742E+03  1.77730E+03
  2.50633E+03  1.14671E+03  2.86846E+03  1.78933E+03  5.29692E+03  4.61810E+03  4.02727E+03  7.61007E+03
 -2.72899E+03  1.22906E+04 -9.80818E+03  1.14234E+04 -1.56086E+04  2.35223E+03 -1.57508E+04 -5.74959E+03
 -6.68513E+03 -1.51487E+04  1.66210E+03 -1.72479E+04  8.16489E+03 -9.55986E+03  1.23555E+04 -2.70369E+03
  9.40344E+03  5.35706E+03  2.44049E+03  8.14288E+03 -3.02258E+03  5.38553E+03 -6.07401E+03 -7.31638E+02
 -2.51808E+03 -6.51095E+03  3.57549E+03 -6.53824E+03  5.45225E+03 -2.80737E+03  6.57824E+03  1.13285E+03
  3.50481E+03  3.79721E+03  1.36307E+03  1.98668E+03 -9.16384E+02  1.88817E+03  2.09483E+03 -3.23602E+02
  2.88884E+03 -5.78319E+02  6.26032E+03  2.65391E+03  3.04194E+03  8.16007E+03 -1.05178E+03  1.05267E+04
 -6.95803E+03  7.33438E+03 -9.00567E+03  2.70692E+03 -8.14700E+03 -3.82152E+03 -3.40961E+03 -5.54483E+03
  5.71078E+02 -4.30097E+03  3.46147E+03 -2.84580E+03  2.94241E+03  3.17175E+03 -1.18984E+03  5.39059E+03
 -5.96711E+03  3.38019E+03 -6.68562E+03 -3.63087E+03 -3.56961E+03 -8.16350E+03  9.35764E+02 -8.15992E+03
  4.61036E+03 -4.66321E+03  6.27709E+03  1.01054E+02  5.52774E+03  1.72792E+03  4.69933E+02  4.93967E+03
 -2.54093E+03  5.09385E+02 -3.94008E+03 -1.98157E+03  7.29818E+02 -6.14072E+03  6.28239E+03 -4.88733E+03
  9.56171E+03  6.58904E+02  9.10333E+03  5.70385E+03  2.37315E+03  1.00666E+04 -3.94718E+03  9.33954E+03
 -8.01449E+03  3.29277E+03 -7.90171E+03 -6.27093E+02 -4.34824E+03 -6.25562E+03  1.17825E+03 -5.67171E+03
  6.63104E+03 -2.94773E+03  5.34939E+03  2.75642E+03  2.02374E+03  5.77106E+03 -8.36110E+02  4.67388E+03
 -2.85365E+03  2.88904E+03 -2.23518E+03  1.53966E+03 -3.66002E+02  1.31871E+03 -2.05791E+03  1.37122E+03
 -2.62148E+03  3.28735E+03 -6.40374E+03  3.62200E+03 -1.01722E+04  5.58949E+02 -1.06717E+04 -7.24361E+03
 -5.33154E+03 -1.27713E+04  2.81438E+03 -1.48217E+04  9.71922E+03 -1.22734E+04  1.43747E+04 -4.20763E+03
  1.27322E+04  2.43212E+03  8.02381E+03  9.20823E+03  1.16373E+03  9.68782E+03 -4.10051E+03  7.47882E+03
 -5.74551E+03  3.40710E+03 -2.92656E+03 -6.89276E+02 -8.17045E+02 -1.65040E+03 -1.06575E+03 -6.70465E+02
 -1.89229E+03 -2.76749E+01 -2.67110E+03 -6.05626E+02 -8.59420E+02 -1.88855E+03  6.33297E+02 -3.52266E+03
  3.73468E+03 -3.49313E+03  5.47946E+03 -4.75071E+02  7.56756E+03  5.85363E+03  1.78814E+03  1.01876E+04
 -5.94687E+03  1.18256E+04 -1.01908E+04  6.31710E+03 -1.25296E+04 -1.03837E+03 -8.93756E+03 -7.50590E+03
 -3.96414E+03 -1.00286E+04  2.14870E+03 -9.73600E+03  6.85583E+03 -4.76643E+03  6.52256E+03 -2.16607E+02
  3.48745E+03  2.92001E+03 -4.59586E+02  2.69956E+03 -2.52327E+03 -1.49867E+03  2.35284E+02 -2.21215E+03
  3.44545E+03 -2.02157E+03  3.58858E+03  8.95572E+02  3.05552E+03  4.73522E+03 -4.92378E+02  4.22476E+03
 -4.37226E+03  5.20398E+03 -7.23029E+03  8.56343E+02 -5.85481E+03 -5.30723E+03 -1.09283E+03 -9.22664E+03
  5.69774E+03 -7.14715E+03  7.47257E+03 -2.97044E+03  8.11962E+03  1.83032E+03  4.01477E+03  6.10916E+03
  1.42742E+03  6.98715E+03 -2.76066E+03  6.21492E+03 -4.84234E+03  2.89937E+03 -3.19809E+03  4.02579E+02
 -1.85445E+03  1.67761E+02 -2.15962E+03  1.13497E+03 -4.42930E+03  7.63539E+02 -5.29559E+03 -5.44062E+02
 -5.11598E+03 -3.19389E+03 -9.92604E+02 -7.27691E+03  3.53592E+03 -7.16810E+03  5.65986E+03 -2.91844E+03
  5.70527E+03  4.14694E+02  3.40742E+03  5.37516E+03  1.55756E+02  6.68398E+03 -5.17182E+03  3.76954E+03
