 $NMID ID='MM_0lb_SNR400_9hz_g45_42.RAW', FMTDAT='(8E13.5)'
 TRAMP=1., VOLUME=1. $END
  3.10397E+05  4.59652E+01  3.38296E+05  2.50990E+05  8.46728E+04  3.38672E+05 -1.31965E+05  2.51902E+05
 -1.90926E+05  8.39190E+04 -1.12339E+05 -3.28996E+04 -9.32901E+00 -5.04484E+04  5.31781E+04 -7.37630E+02
  3.60671E+04  5.29609E+04 -1.63095E+04  7.63106E+04 -6.13776E+04  6.47060E+04 -8.51626E+04  3.25105E+04
 -8.20877E+04 -1.03042E+04 -5.80926E+04 -5.31684E+04 -1.50947E+04 -7.13172E+04  2.65853E+04 -4.66394E+04
  4.04729E+04  3.54883E+03  1.67700E+04  4.85778E+04 -3.49186E+04  4.80163E+04 -6.85952E+04 -6.98962E+02
 -5.47409E+04 -5.74273E+04 -7.15992E+03 -7.86109E+04  3.47482E+04 -5.67315E+04  4.99484E+04 -1.81310E+04
  4.48452E+04  1.16611E+04  3.25940E+04  2.61504E+04  1.58951E+04  2.95863E+04 -5.21594E+03  2.75771E+04
 -2.21828E+04  1.16045E+04 -1.80869E+04 -5.74119E+03  6.96187E+03 -7.33084E+03  2.23570E+04  1.34902E+04
  7.75588E+03  3.74430E+04 -3.42912E+04  3.71741E+04 -6.62019E+04  2.64548E+03 -5.83296E+04 -4.42699E+04
 -1.30593E+04 -6.56840E+04  4.15737E+04 -4.68351E+04  6.08762E+04 -2.57163E+03  3.65732E+04  3.43959E+04
 -5.14625E+03  3.91507E+04 -3.16738E+04  1.91158E+04 -3.30781E+04 -3.91335E+03 -1.91006E+04 -1.23670E+04
 -9.67797E+03 -1.52943E+04 -3.03680E+02 -1.99628E+04  8.41388E+03 -2.36564E+04  1.58692E+04 -1.20228E+04
  1.08742E+04  6.05514E+03 -1.03441E+04  1.29372E+04 -2.34187E+04 -6.81159E+03 -8.82272E+03 -3.71058E+04
  2.48887E+04 -4.70559E+04  5.14262E+04 -2.01239E+04  4.82802E+04  2.11004E+04  1.68803E+04  4.68692E+04
 -1.69576E+04  3.59622E+04 -2.78746E+04  2.94957E+03 -1.17440E+04 -2.95093E+04  2.19798E+04 -3.59368E+04
  4.38248E+04 -1.03286E+04  4.00524E+04  2.49103E+04  2.18655E+04  5.09379E+04 -7.77652E+03  5.58997E+04
 -3.51564E+04  3.88662E+04 -4.65156E+04  1.07106E+04 -4.69151E+04 -1.86399E+04 -2.56554E+04 -4.14578E+04
  7.79926E+03 -4.27016E+04  3.40308E+04 -1.69051E+04  3.19946E+04  1.15870E+04  5.08051E+03  2.05364E+04
 -1.39612E+04  9.43865E+03 -1.10629E+04 -7.91752E+03  5.84484E+03 -1.15727E+04  1.89899E+04  5.86109E+03
  1.51763E+04  2.29459E+04 -5.15766E+03  2.65652E+04 -2.31543E+04  1.38428E+04 -3.14168E+04 -3.63411E+03
 -2.47460E+04 -1.77980E+04 -1.13175E+04 -2.38693E+04  4.34616E+03 -2.51068E+04  1.90049E+04 -2.25486E+04
  3.09052E+04 -1.38051E+04  3.79877E+04  4.47147E+03  2.61236E+04  2.42860E+04  4.25471E+03  4.03586E+04
 -1.90846E+04  3.26845E+04 -2.99392E+04  1.21519E+04 -2.22395E+04 -1.01602E+04 -4.82545E+03 -1.29706E+04
  5.92432E+02 -6.47949E+02 -7.46123E+03  8.45070E+03 -2.01517E+04  5.13683E+03 -1.98421E+04 -9.48282E+03
 -1.20758E+04 -2.29960E+04  6.67928E+03 -2.74513E+04  1.78557E+04 -1.91966E+04  2.11283E+04 -1.96264E+03
  1.47377E+04  1.53899E+04 -7.28747E+02  2.26766E+04 -1.57185E+04  1.23455E+04 -2.32358E+04 -4.11897E+03
 -1.70471E+04 -2.00139E+04 -1.72250E+03 -2.74583E+04  1.16988E+04 -2.31956E+04  2.30019E+04 -1.18505E+04
  2.22669E+04 -4.72301E+01  1.66664E+04  5.56552E+03  9.03465E+03  1.12748E+03  1.20466E+04 -2.35197E+03
  2.10616E+04  2.97956E+03  2.52989E+04  1.80466E+04  1.71605E+04  3.70199E+04 -3.12688E+03  4.40231E+04
 -2.41308E+04  3.60747E+04 -4.12802E+04  1.82291E+04 -4.33579E+04 -3.36635E+03 -3.59105E+04 -2.48001E+04
 -1.39962E+04 -3.63518E+04  1.34029E+04 -3.21305E+04  2.70826E+04 -1.47003E+04  2.35839E+04  7.76877E+03
  7.95506E+03  1.78749E+04 -1.10043E+04  1.56587E+04 -1.98840E+04  2.12730E+03 -1.49385E+04 -1.30072E+04
 -1.24550E+03 -1.81566E+04  9.77939E+03 -1.39945E+04  1.25032E+04 -1.26342E+03  3.96190E+03  8.76559E+03
 -8.32684E+03  3.84953E+03 -8.54963E+03 -7.15772E+03 -2.08491E+03 -1.76746E+04  1.13863E+04 -1.94072E+04
  2.20557E+04 -1.16365E+04  2.57719E+04  4.21687E+03  2.19232E+04  1.82078E+04  9.71123E+03  2.89712E+04
 -5.33918E+03  3.06278E+04 -1.93545E+04  1.92795E+04 -2.32239E+04  4.35349E+03 -1.51740E+04 -5.74983E+03
 -5.78681E+03 -7.27773E+03 -1.47208E+02  7.32610E+02 -3.16159E+03  3.29670E+03 -7.60871E+03  6.68275E+03
 -1.40854E+04 -1.59968E+03 -1.44501E+04 -1.12782E+04 -6.33932E+03 -1.94243E+04  6.10233E+03 -1.56438E+04
  1.18930E+04 -6.90031E+03  9.13296E+03  4.77336E+03 -4.57985E+01  5.54423E+03 -7.10571E+03 -6.96584E+02
 -6.30670E+03 -1.09791E+04 -2.26305E+03 -1.48605E+04  8.26615E+03 -1.63283E+04  1.98569E+04 -8.80278E+03
  2.27903E+04  2.45637E+03  1.75338E+04  1.40286E+04  2.87788E+03  1.85433E+04 -8.75235E+03  1.50559E+04
 -1.21056E+04  4.22700E+03 -5.49976E+03 -4.09904E+03  1.86849E+03 -3.78346E+03  8.46989E+03 -1.47239E+03
  7.38300E+03  6.82230E+03  1.73929E+03  1.20707E+04 -8.88561E+03  1.14780E+04 -1.58084E+04  3.21148E+03
 -1.04331E+04 -8.35065E+03  1.32836E+02 -1.22726E+04  9.15403E+03 -7.04551E+03  8.77122E+03  3.45541E+03
  2.71170E+03  8.68691E+03 -8.76143E+03  1.12577E+04 -1.38515E+04  4.91316E+03 -1.29252E+04 -5.31431E+03
 -8.20445E+03 -1.56129E+04  3.22919E+03 -1.74014E+04  1.50788E+04 -1.08226E+04  1.60939E+04  2.27326E+03
  9.72209E+03  1.32843E+04 -1.18440E+03  1.52430E+04 -1.16258E+04  8.73060E+03 -1.22492E+04 -1.38080E+03
 -1.01029E+04 -1.05432E+04 -9.90147E+02 -1.20771E+04  6.36028E+03 -9.89161E+03  7.68997E+03 -4.17173E+03
  4.81063E+03  1.75788E+03 -9.26911E+02  2.57412E+03 -1.87945E+02 -2.97051E+03  3.03148E+03 -7.46886E+03
  1.14967E+04 -4.41413E+03  1.61125E+04  2.41367E+03  1.53765E+04  1.11652E+04  1.01569E+04  1.97349E+04
 -4.80271E+03  2.33414E+04 -1.90657E+04  1.67982E+04 -2.48517E+04  2.43139E+03 -2.06619E+04 -9.36539E+03
 -1.01500E+04 -1.62339E+04 -4.65219E+02 -1.48846E+04  5.50419E+03 -7.73364E+03  5.07974E+03 -5.69299E+03
  4.46711E+03 -2.77308E+03  3.97799E+03 -3.50797E+03  6.29106E+03 -3.16285E+03  7.71300E+03 -1.39821E+03
  9.98971E+03  2.60298E+03  5.75146E+03  8.81915E+03 -1.65614E+03  1.04269E+04 -1.12583E+04  8.89717E+03
 -1.36531E+04 -1.25737E+03 -8.36708E+03 -1.01343E+04 -5.81163E+02 -1.52489E+04  8.29019E+03 -1.55856E+04
  1.61564E+04 -8.26392E+03  1.88992E+04  2.43494E+03  1.36061E+04  1.34359E+04  1.97268E+03  1.69633E+04
 -7.33231E+03  1.44482E+04 -1.03052E+04  4.42147E+03 -7.56640E+03 -1.72681E+03 -2.61829E+03 -2.91448E+03
 -1.30031E+03 -1.00235E+03 -2.16508E+03  3.12353E+03 -6.18899E+03  1.20537E+03 -1.03336E+04 -1.63160E+03
 -7.14007E+03 -9.44976E+03 -9.62657E+02 -1.39386E+04  8.31464E+03 -1.33216E+04  1.42172E+04 -3.70567E+03
  1.41756E+04  6.83437E+03  7.43443E+03  1.27760E+04 -2.64778E+03  1.38375E+04 -1.01131E+04  8.77283E+03
 -1.33921E+04  3.97695E+02 -1.10901E+04 -9.63227E+03 -8.82802E+02 -1.26834E+04  5.74280E+03 -9.06477E+03
  9.55316E+03 -3.55921E+03  6.35937E+03  2.96665E+03  2.64060E+03  4.25496E+03  1.31152E+03  2.64502E+03
  3.00381E+03  1.14145E+03  3.04318E+03  1.26337E+03  4.95990E+03  5.24430E+03  4.22857E+03  7.80119E+03
 -2.85426E+03  1.14125E+04 -9.60126E+03  1.14603E+04 -1.49454E+04  3.55829E+03 -1.62343E+04 -6.09641E+03
 -8.19479E+03 -1.44815E+04  2.14151E+03 -1.59068E+04  8.89217E+03 -1.05061E+04  1.21267E+04 -2.53488E+03
  9.42139E+03  5.30701E+03  2.38462E+03  8.03466E+03 -4.82948E+03  5.01228E+03 -6.68662E+03 -1.36866E+03
 -2.82103E+03 -5.60145E+03  3.38124E+03 -7.05805E+03  6.07747E+03 -3.07918E+03  6.01623E+03  7.22000E+02
  3.92363E+03  2.71628E+03  1.94780E+03  1.58787E+03 -2.74901E+02  2.26058E+03  1.64175E+03 -1.18385E+03
  3.03711E+03 -8.15528E+02  6.08520E+03  2.96219E+03  2.63619E+03  8.01118E+03 -7.81911E+02  1.07550E+04
 -7.69077E+03  7.05264E+03 -9.91764E+03  1.74546E+03 -8.73273E+03 -3.73575E+03 -3.34473E+03 -5.44066E+03
  1.19363E+03 -5.70468E+03  3.61535E+03 -2.13457E+03  3.25038E+03  2.57724E+03 -1.73792E+03  4.62783E+03
 -5.80787E+03  3.12969E+03 -6.20516E+03 -3.68828E+03 -3.70393E+03 -8.42072E+03  1.26080E+03 -7.84784E+03
  4.37946E+03 -4.58896E+03  5.68316E+03 -1.34826E+03  4.80511E+03  2.04650E+03  1.04918E+03  4.48470E+03
 -3.61290E+03  1.78115E+03 -3.35157E+03 -2.25462E+03  1.55634E+03 -6.31513E+03  7.62221E+03 -5.55889E+03
  9.30513E+03  3.82088E+02  9.01752E+03  6.26022E+03  2.74958E+03  9.38275E+03 -3.35485E+03  9.82123E+03
 -8.12741E+03  3.99689E+03 -8.34537E+03 -1.43885E+03 -4.29722E+03 -6.75393E+03  1.55371E+03 -5.67727E+03
  5.77351E+03 -2.68096E+03  6.40844E+03  1.67868E+03  2.86200E+03  4.51910E+03 -1.63186E+03  4.08400E+03
 -3.29474E+03  2.29261E+03 -2.82473E+03  8.52073E+02 -2.04363E+03  1.26517E+03 -1.27513E+03  1.92805E+03
 -2.37007E+03  3.74808E+03 -6.17856E+03  3.75448E+03 -9.66726E+03  7.89087E+02 -1.06858E+04 -6.38102E+03
 -6.54085E+03 -1.21571E+04  1.61857E+03 -1.51257E+04  9.21817E+03 -1.16024E+04  1.46732E+04 -4.44487E+03
  1.36774E+04  2.85340E+03  8.78342E+03  9.44212E+03  6.71318E+02  1.01615E+04 -3.94072E+03  7.57550E+03
 -5.30756E+03  3.16002E+03 -3.11034E+03 -1.12398E+03 -8.19643E+02 -6.22452E+01 -9.39898E+02 -6.10786E+02
 -9.98905E+02  3.62942E+02 -1.90564E+03 -3.25453E+02 -6.46892E+02 -2.68329E+03 -6.88345E+01 -4.57110E+03
  4.87056E+03 -3.07242E+03  5.80544E+03  2.88998E+02  7.90865E+03  6.13502E+03  2.07336E+03  9.99173E+03
 -4.62368E+03  1.14258E+04 -1.11063E+04  6.56545E+03 -1.17222E+04 -1.06210E+03 -8.89021E+03 -7.23392E+03
 -4.08586E+03 -1.07168E+04  2.83906E+03 -9.62681E+03  6.79533E+03 -5.45502E+03  6.37648E+03  2.42032E+02
  3.71183E+03  2.80910E+03 -5.86930E+02  3.30275E+03 -1.50682E+03 -1.63761E+02 -4.76164E+00 -1.99704E+03
  2.88648E+03 -1.63688E+03  4.44014E+03  1.20755E+03  3.32261E+03  4.35454E+03  7.69902E+02  5.28858E+03
 -5.11754E+03  5.49532E+03 -6.64891E+03  7.22891E+02 -6.49806E+03 -5.22641E+03 -9.45917E+02 -8.42366E+03
  4.85375E+03 -7.17362E+03  8.68794E+03 -3.28016E+03  8.09618E+03  2.58811E+03  3.45504E+03  6.96030E+03
 -3.35032E+02  7.35855E+03 -2.37401E+03  5.50648E+03 -4.77038E+03  3.09587E+03 -3.44291E+03 -2.13171E+02
 -2.00483E+03 -7.41778E+01 -1.48208E+03  1.20737E+03 -2.95462E+03  1.18217E+03 -5.11449E+03 -1.53569E+03
 -5.47475E+03 -3.19870E+03 -1.02682E+03 -6.79233E+03  2.93784E+03 -6.87793E+03  5.80667E+03 -3.25641E+03
  7.12345E+03  7.34215E+02  3.47034E+03  5.38234E+03 -7.26540E+02  7.26263E+03 -5.02337E+03  3.72456E+03
