 $NMID ID='MM_0lb_SNR400_18hz_g60_22.RAW', FMTDAT='(8E13.5)'
 TRAMP=1., VOLUME=1. $END
  3.09484E+05  1.96236E+02  3.37277E+05  2.50633E+05  8.46309E+04  3.37062E+05 -1.32196E+05  2.51259E+05
 -1.90443E+05  8.27510E+04 -1.11187E+05 -3.22693E+04  1.21037E+03 -5.04684E+04  5.39456E+04 -2.94760E+02
  3.53332E+04  5.30398E+04 -1.68212E+04  7.53201E+04 -6.09243E+04  6.32239E+04 -8.38293E+04  3.18050E+04
 -8.04026E+04 -1.14260E+04 -5.73197E+04 -5.10898E+04 -1.48822E+04 -6.90754E+04  2.73346E+04 -4.54737E+04
  3.97987E+04  3.28505E+03  1.64110E+04  4.74047E+04 -3.45997E+04  4.67346E+04 -6.65902E+04 -1.24801E+02
 -5.25659E+04 -5.66377E+04 -6.92055E+03 -7.60299E+04  3.43109E+04 -5.47218E+04  4.76042E+04 -1.71804E+04
  4.29225E+04  1.14871E+04  3.09562E+04  2.51467E+04  1.58531E+04  2.88998E+04 -5.36084E+03  2.70689E+04
 -2.20102E+04  1.25494E+04 -1.88531E+04 -4.59733E+03  5.20578E+03 -7.73001E+03  2.21922E+04  1.16736E+04
  7.32604E+03  3.46723E+04 -3.16271E+04  3.53749E+04 -6.24250E+04  1.79955E+03 -5.62503E+04 -4.25191E+04
 -1.30008E+04 -6.23543E+04  3.92108E+04 -4.49018E+04  5.74901E+04 -2.30973E+03  3.37834E+04  3.21444E+04
 -6.18289E+03  3.55054E+04 -2.93232E+04  1.50748E+04 -2.95346E+04 -5.17239E+03 -1.58610E+04 -1.02630E+04
 -8.13048E+03 -1.23130E+04 -6.73280E+02 -1.78399E+04  7.00488E+03 -2.25332E+04  1.55802E+04 -1.35605E+04
  1.16684E+04  4.77859E+03 -7.27808E+03  1.21724E+04 -2.04744E+04 -3.73186E+03 -8.04545E+03 -3.21523E+04
  2.15905E+04 -4.23332E+04  4.73595E+04 -1.94791E+04  4.37092E+04  1.93041E+04  1.49927E+04  4.29811E+04
 -1.63920E+04  3.24741E+04 -2.49380E+04  1.35220E+03 -9.21764E+03 -2.74708E+04  2.09373E+04 -3.28514E+04
  3.98918E+04 -8.30734E+03  3.44722E+04  2.37190E+04  1.72373E+04  4.47788E+04 -7.36277E+03  4.80804E+04
 -3.03339E+04  3.20309E+04 -3.97635E+04  8.71118E+03 -4.11866E+04 -1.60134E+04 -2.28242E+04 -3.62924E+04
  7.24014E+03 -3.62193E+04  3.05529E+04 -1.43725E+04  2.87542E+04  1.06705E+04  3.16692E+03  1.90540E+04
 -1.33690E+04  7.44901E+03 -1.02085E+04 -7.62175E+03  5.82935E+03 -1.08581E+04  1.76345E+04  6.25089E+03
  1.30879E+04  2.23504E+04 -6.17791E+03  2.42861E+04 -2.23666E+04  1.04369E+04 -2.67373E+04 -5.50215E+03
 -1.89657E+04 -1.63599E+04 -7.60407E+03 -1.90885E+04  3.96568E+03 -1.72341E+04  1.39219E+04 -1.67112E+04
  2.43235E+04 -1.24975E+04  3.04460E+04  2.23904E+03  2.24954E+04  1.78240E+04  4.10567E+03  3.50743E+04
 -1.71716E+04  2.90662E+04 -2.75102E+04  9.90602E+03 -2.03238E+04 -1.07579E+04 -4.17076E+03 -1.32175E+04
  2.44902E+03 -3.89511E+03 -3.75547E+03  6.27337E+03 -1.47627E+04  4.88306E+03 -1.49798E+04 -5.99902E+03
 -9.26437E+03 -1.69013E+04  4.96598E+03 -2.16169E+04  1.40989E+04 -1.51165E+04  1.64808E+04 -8.57707E+02
  1.01016E+04  1.17566E+04 -9.03184E+02  1.70600E+04 -1.21952E+04  9.67680E+03 -1.71141E+04 -3.09887E+03
 -1.26012E+04 -1.52725E+04 -1.58715E+03 -2.06482E+04  1.01072E+04 -1.70946E+04  1.77233E+04 -7.59795E+03
  1.59243E+04  2.25587E+02  1.15853E+04  3.71860E+03  6.09552E+03  5.88782E+02  8.40921E+03 -1.17659E+03
  1.53695E+04  2.55588E+03  1.68744E+04  1.39519E+04  1.06380E+04  2.74832E+04 -3.10665E+03  2.97153E+04
 -1.72633E+04  2.34621E+04 -2.76790E+04  1.20040E+04 -2.87050E+04 -2.41090E+03 -2.38911E+04 -1.65763E+04
 -1.13153E+04 -2.42499E+04  8.08337E+03 -2.13101E+04  1.84141E+04 -1.15113E+04  1.68669E+04  3.94898E+03
  6.94067E+03  1.24862E+04 -7.78292E+03  1.18583E+04 -1.47571E+04  2.35745E+03 -1.06929E+04 -9.07480E+03
  1.24491E+02 -1.40106E+04  6.71939E+03 -1.01745E+04  8.13985E+03 -1.18387E+03  1.56004E+03  5.72982E+03
 -5.80521E+03  1.95713E+03 -4.83184E+03 -5.33405E+03  2.65570E+02 -1.10337E+04  8.64368E+03 -1.15478E+04
  1.40567E+04 -6.01305E+03  1.46785E+04  2.32215E+03  1.21940E+04  1.07211E+04  5.79188E+03  1.61568E+04
 -2.45760E+03  1.83287E+04 -1.09038E+04  1.16161E+04 -1.29319E+04  2.97399E+03 -9.52012E+03 -2.06193E+03
 -5.10376E+03 -3.98010E+03 -6.15436E+02  1.60100E+03 -1.90353E+03  2.40158E+03 -4.24448E+03  3.92144E+03
 -9.42530E+03 -3.36101E+02 -9.39247E+03 -8.29380E+03 -4.29673E+03 -1.27746E+04  3.64430E+03 -9.29462E+03
  7.81034E+03 -4.51128E+03  5.56505E+03  2.46018E+03  8.94328E+02  3.62604E+03 -3.96588E+03  5.28877E+01
 -3.89339E+03 -6.29415E+03 -6.97163E+02 -8.08996E+03  5.08102E+03 -9.13029E+03  1.13318E+04 -4.85953E+03
  1.32102E+04  4.18867E+02  9.46029E+03  7.32232E+03  2.50665E+03  9.71151E+03 -5.65705E+03  9.57852E+03
 -7.41338E+03  3.08611E+03 -3.61887E+03 -1.33560E+03  2.25873E+03 -1.99872E+03  5.85207E+03 -1.17563E+03
  4.62742E+03  4.26826E+03  1.30142E+03  7.57267E+03 -4.54682E+03  6.90239E+03 -8.43231E+03  2.09143E+03
 -5.59616E+03 -4.99692E+03 -1.40753E+02 -7.75534E+03  4.28969E+03 -3.74308E+03  4.53520E+03  1.19698E+03
  7.89347E+02  4.23312E+03 -4.78177E+03  5.59046E+03 -6.26346E+03  2.23381E+03 -6.24896E+03 -2.12451E+03
 -3.20521E+03 -7.53791E+03  1.70564E+03 -8.46578E+03  6.72988E+03 -5.46353E+03  7.93358E+03  7.93478E+02
  5.09718E+03  6.24641E+03  3.11153E+02  7.90895E+03 -6.09488E+03  4.34866E+03 -6.26195E+03 -8.71530E+02
 -6.34425E+03 -5.89584E+03 -1.12188E+03 -5.23178E+03  2.86471E+03 -5.27947E+03  3.87675E+03 -3.25128E+03
  3.55564E+03  5.45606E+02  1.96153E+02  1.89982E+03 -1.43579E+02 -7.73943E+02  7.42809E+02 -2.18371E+03
  4.95756E+03 -1.44132E+03  6.40188E+03  6.57513E+02  5.99715E+03  3.60509E+03  6.08584E+03  8.57111E+03
 -1.64859E+03  9.91405E+03 -9.11888E+03  7.53139E+03 -1.12735E+04  1.14792E+03 -8.91855E+03 -3.11309E+03
 -4.44220E+03 -7.31336E+03 -2.19559E+02 -6.11740E+03  2.13375E+03 -2.80564E+03  1.84555E+03 -2.04597E+03
  2.03838E+03 -1.16600E+03  2.92784E+03 -3.51380E+03  3.89128E+03 -6.31467E+02  4.07104E+03  5.94737E+02
  4.81955E+03  1.28582E+03  1.79990E+03  3.76964E+03 -1.73545E+03  2.54886E+03 -4.65678E+03  2.65123E+03
 -5.66936E+03 -9.63443E+02 -2.67839E+03 -3.88666E+03 -1.54036E+02 -5.67234E+03  3.23710E+03 -6.27553E+03
  6.19028E+03 -3.27332E+03  7.50768E+03  2.32377E+02  5.47644E+03  4.37968E+03  7.73135E+02  6.69905E+03
 -2.70398E+03  6.03414E+03 -3.46654E+03  2.44827E+03 -2.30878E+03 -9.94858E+02 -6.21368E+02 -4.30562E+02
 -5.00726E+02  1.50954E+02 -7.58822E+02  1.98013E+03 -2.72762E+03  9.77343E+02 -4.46892E+03 -1.77245E+02
 -1.99498E+03 -4.05491E+03  9.79203E+02 -5.13406E+03  3.06173E+03 -4.49260E+03  3.69932E+03 -8.87813E+02
  5.01921E+03  2.87833E+03  2.20973E+03  4.41572E+03 -1.03467E+03  4.61355E+03 -2.77011E+03  3.49891E+03
 -4.11596E+03  1.07236E+03 -4.41737E+03 -3.16430E+03 -4.88670E+02 -3.50835E+03  2.43326E+03 -2.69330E+03
  2.10273E+03 -1.60257E+03  1.70764E+03  1.06633E+03  7.40640E+02  1.75511E+03  9.53838E+02  5.34591E+02
  2.09300E+03  7.08746E+02  1.76713E+03  1.14596E+03  6.41920E+02  2.35394E+03  2.21243E+03  1.52154E+03
 -1.93347E+03  3.27100E+03 -2.56312E+03  4.61395E+03 -3.31021E+03  1.10314E+03 -4.14597E+03 -1.09697E+03
 -2.03952E+03 -4.01067E+03  9.77122E+02 -4.81992E+03  1.73931E+03 -3.34062E+03  3.48087E+03 -2.67971E+02
  2.80346E+03  1.92257E+03  1.51062E+01  2.72859E+03 -1.26723E+03  1.35249E+03 -1.32272E+03  6.89655E+01
 -5.24986E+02 -1.57837E+03  1.35341E+03 -1.95816E+03  1.14948E+03 -1.70450E+03  1.74191E+03  4.97309E+02
  1.16790E+03  5.16422E+01  4.63983E+02  6.46704E+01  5.80050E+01  7.10559E+02  1.79938E+03 -1.92229E+02
  9.96175E+01 -5.18379E+02  1.89548E+03  3.84830E+02 -2.43995E+02  2.22972E+03 -3.56967E+02  3.41651E+03
 -1.79379E+03  1.18688E+03 -2.27944E+03  1.38648E+02 -2.86224E+03 -1.94102E+03 -4.69576E+02 -7.29554E+02
  6.62767E+02 -1.22589E+03  1.16650E+03 -6.04863E+02  6.38164E+02  7.40881E+02 -9.55508E+02  8.33723E+02
 -1.27767E+03  9.59585E+02 -1.02361E+03 -9.04223E+02 -8.39267E+02 -2.32094E+03 -1.40302E+01 -1.38643E+03
  7.28966E+02 -1.10903E+03  5.77463E+02  4.28993E+02  1.38772E+03 -1.50486E+01  1.78679E+02  1.13521E+03
 -4.15247E+02  7.23077E+02 -5.70092E+02 -6.00750E+00  1.15558E+03 -9.92472E+02  2.15379E+03 -2.97001E+02
  1.47410E+03  8.61538E+01  2.91235E+03  1.38587E+03  1.23133E+03  1.50578E+03 -2.12385E+02  1.95978E+03
 -1.60219E+03  3.01060E+02 -1.44159E+03 -1.99361E+02 -1.05839E+03 -1.67060E+03  3.48225E+02 -1.18047E+03
  1.35978E+03 -2.28686E+02  1.05064E+03  7.44451E+02  8.38973E+02  1.26316E+03  1.61391E+01  1.37349E+03
 -2.48701E+02  1.28352E+03 -3.65534E+02 -3.36927E+02  3.58390E+02 -5.07196E+00 -1.03233E+03  6.98787E+02
 -3.32732E+02  1.17312E+03 -1.67568E+03  1.63764E+02 -1.61667E+03  3.48634E+02 -2.79581E+03 -8.81841E+02
 -8.78503E+02 -3.01774E+03  1.85458E+02 -3.08069E+03  9.59138E+02 -2.75763E+03  2.91772E+03 -8.68216E+02
  3.48542E+03 -3.63346E+02  1.20209E+03  1.99834E+03 -5.65535E+02  2.04400E+03 -6.46556E+02  9.67024E+02
 -1.39267E+03  7.63513E+02 -2.37384E+02  2.90378E+02 -8.91072E+02  4.49511E+02  4.28789E+01 -1.06969E+01
 -7.66495E+02  4.08719E+02 -6.69137E+02  1.51264E+02  6.55350E+02 -1.08786E+03 -1.03973E+03 -7.76824E+02
  1.85365E+03 -5.23204E+02  3.68656E+02 -6.21643E+01  1.14028E+03  1.16864E+03 -5.54476E+02  1.36641E+03
 -1.16076E+03  1.86494E+03 -1.08156E+03  1.24365E+03 -2.07875E+03 -8.44657E+02 -1.50995E+03 -1.34078E+03
 -1.25029E+03 -1.46489E+03  2.23364E+02 -1.47499E+03  1.09816E+03 -1.15076E+03  7.79735E+02  2.55994E+01
  1.03109E+03  3.21510E+01  7.84476E+01  8.89527E+02 -3.02347E+02 -3.85457E+02 -7.43776E+02 -1.90452E+02
  1.17221E+03  1.09804E+02  2.56541E+02  5.70036E+02  1.96498E+02  4.38585E+02  6.22428E+02  2.24083E+02
 -4.03179E+02  2.00743E+02 -5.82812E+02  3.71211E+02 -4.11412E+02 -1.05923E+03  4.97650E+02 -1.13313E+03
  9.88209E+01 -1.05437E+03  1.17888E+03 -9.70664E+01  1.00592E+03 -1.12557E+03  7.12475E+02  5.73597E+02
  7.10529E+02  1.13040E+03 -1.55044E+02  5.73066E+02 -8.34570E+02  5.98818E+02 -5.18742E+02  3.35676E+01
 -4.37049E+02  2.97452E+02 -2.56966E+02  4.15388E+02 -4.20892E+02  7.64710E+01 -6.58075E+02  9.37749E+01
 -5.48679E+02  1.14499E+02 -4.59303E+02 -8.48676E+02  8.98177E+02 -1.26595E+03 -8.50848E+00 -2.38675E+02
  6.24574E+02 -9.10976E+01 -4.23788E+02 -1.20219E+02 -2.06711E+02  7.14693E+02 -3.52681E+02  6.50018E+02
