 $NMID ID='MM_0lb_SNR400_19hz_g50_99.RAW', FMTDAT='(8E13.5)'
 TRAMP=1., VOLUME=1. $END
  3.09580E+05  4.54330E+01  3.37458E+05  2.50861E+05  8.45748E+04  3.37203E+05 -1.32335E+05  2.49998E+05
 -1.89369E+05  8.24335E+04 -1.10916E+05 -3.29513E+04  1.63876E+03 -4.98703E+04  5.35571E+04  1.28334E+02
  3.55250E+04  5.33468E+04 -1.68955E+04  7.46442E+04 -6.03468E+04  6.29243E+04 -8.31313E+04  3.16333E+04
 -7.95622E+04 -1.08379E+04 -5.64982E+04 -5.03973E+04 -1.45410E+04 -6.83706E+04  2.70193E+04 -4.42642E+04
  3.92737E+04  3.33390E+03  1.56279E+04  4.72314E+04 -3.36586E+04  4.60800E+04 -6.55202E+04 -1.15280E+03
 -5.21325E+04 -5.61052E+04 -5.93695E+03 -7.50840E+04  3.23939E+04 -5.35242E+04  4.59841E+04 -1.59038E+04
  4.20444E+04  1.12128E+04  3.09472E+04  2.41968E+04  1.55849E+04  2.77791E+04 -4.64304E+03  2.72489E+04
 -2.15879E+04  1.26960E+04 -1.86147E+04 -4.58189E+03  4.64690E+03 -7.20549E+03  2.14317E+04  1.09982E+04
  7.65313E+03  3.35559E+04 -3.05686E+04  3.42122E+04 -6.12769E+04  1.53328E+03 -5.53462E+04 -4.13678E+04
 -1.23909E+04 -6.08059E+04  3.82815E+04 -4.34863E+04  5.60772E+04 -1.80574E+03  3.18713E+04  3.07154E+04
 -6.95233E+03  3.30553E+04 -2.85675E+04  1.31156E+04 -2.77477E+04 -5.33701E+03 -1.42628E+04 -1.03970E+04
 -7.25286E+03 -1.15772E+04 -1.71477E+03 -1.70052E+04  6.59896E+03 -2.30416E+04  1.51609E+04 -1.33042E+04
  1.21697E+04  4.19386E+03 -6.06056E+03  1.26891E+04 -1.93764E+04 -2.11192E+03 -8.33172E+03 -3.06555E+04
  2.06146E+04 -4.01587E+04  4.49288E+04 -1.85624E+04  4.21011E+04  1.79425E+04  1.47832E+04  4.16336E+04
 -1.51630E+04  3.11819E+04 -2.30736E+04  9.19018E+02 -7.80523E+03 -2.65957E+04  2.07247E+04 -3.11167E+04
  3.75636E+04 -7.54017E+03  3.14941E+04  2.27607E+04  1.53654E+04  4.28069E+04 -7.78622E+03  4.55655E+04
 -2.87589E+04  2.94963E+04 -3.72146E+04  8.13665E+03 -3.82374E+04 -1.46682E+04 -2.11950E+04 -3.47144E+04
  7.03837E+03 -3.40711E+04  2.93829E+04 -1.28795E+04  2.66003E+04  1.07992E+04  3.13071E+03  1.80858E+04
 -1.30143E+04  6.97055E+03 -9.78515E+03 -7.96806E+03  6.26392E+03 -9.51321E+03  1.73910E+04  6.12574E+03
  1.21785E+04  2.15847E+04 -6.50117E+03  2.34955E+04 -2.16116E+04  9.49132E+03 -2.50483E+04 -6.01266E+03
 -1.63853E+04 -1.66535E+04 -5.38899E+03 -1.69012E+04  3.83605E+03 -1.53349E+04  1.25395E+04 -1.39972E+04
  2.13318E+04 -1.19186E+04  2.85262E+04  1.64138E+03  2.08243E+04  1.65381E+04  4.46697E+03  3.22512E+04
 -1.66164E+04  2.74783E+04 -2.55904E+04  8.89637E+03 -1.95345E+04 -1.03245E+04 -4.03449E+03 -1.42293E+04
  2.44876E+03 -3.60794E+03 -2.72328E+03  5.39767E+03 -1.36568E+04  5.54394E+03 -1.34150E+04 -4.82151E+03
 -8.56042E+03 -1.57425E+04  4.62133E+03 -1.96976E+04  1.21431E+04 -1.39978E+04  1.41889E+04 -1.81206E+03
  8.85150E+03  1.10011E+04 -2.67150E+02  1.55348E+04 -1.04244E+04  8.89219E+03 -1.45876E+04 -3.58161E+03
 -1.12009E+04 -1.40309E+04 -1.70432E+03 -1.91240E+04  8.32626E+03 -1.55253E+04  1.60506E+04 -7.06409E+03
  1.49635E+04  1.14836E+03  1.06277E+04  3.88851E+03  5.38535E+03  3.12908E+02  7.85791E+03 -1.52643E+03
  1.37682E+04  2.97503E+03  1.45203E+04  1.27216E+04  9.20663E+03  2.46922E+04 -3.04938E+03  2.64527E+04
 -1.52195E+04  2.04989E+04 -2.43349E+04  9.24065E+03 -2.46407E+04 -1.80683E+03 -2.10854E+04 -1.41058E+04
 -9.96865E+03 -2.07780E+04  6.28358E+03 -1.90305E+04  1.66766E+04 -1.05430E+04  1.53320E+04  3.83746E+03
  6.78945E+03  1.14311E+04 -6.62790E+03  1.08292E+04 -1.32536E+04  2.50870E+03 -1.07785E+04 -7.62680E+03
 -1.12311E+02 -1.25996E+04  6.59598E+03 -9.18469E+03  7.58719E+03 -1.67217E+03  1.55744E+03  4.68762E+03
 -6.05374E+03  1.16843E+03 -3.40001E+03 -4.84845E+03  7.04726E+02 -9.71838E+03  7.08677E+03 -9.74139E+03
  1.24146E+04 -3.89134E+03  1.13710E+04  3.22488E+03  1.06557E+04  9.37423E+03  4.39145E+03  1.35694E+04
 -1.32622E+03  1.61682E+04 -8.95075E+03  9.96388E+03 -1.10976E+04  2.53331E+03 -8.60037E+03 -1.87553E+03
 -4.84618E+03 -3.03960E+03 -1.23123E+03  1.55560E+03 -1.69041E+03  2.22034E+03 -3.62018E+03  3.78304E+03
 -8.34339E+03 -9.07790E+02 -8.62003E+03 -6.85999E+03 -3.79886E+03 -1.15865E+04  3.61746E+03 -8.49746E+03
  6.87724E+03 -3.37308E+03  4.57629E+03  2.24988E+03  1.16750E+02  2.65418E+03 -3.25743E+03 -5.77738E+02
 -3.63777E+03 -5.10578E+03 -9.68288E+02 -6.73023E+03  4.55138E+03 -7.94907E+03  9.89353E+03 -4.24941E+03
  1.12689E+04  2.37288E+02  8.35894E+03  6.07327E+03  1.33424E+03  8.76421E+03 -5.12486E+03  8.27381E+03
 -6.81105E+03  3.11706E+03 -3.22366E+03 -9.93133E+02  1.81022E+03 -2.38171E+03  5.02836E+03 -1.00568E+03
  4.27413E+03  3.14132E+03  8.36476E+02  6.46196E+03 -4.49285E+03  6.44242E+03 -8.14452E+03  1.86097E+03
 -4.73380E+03 -3.81633E+03 -2.17732E+02 -6.09273E+03  3.81453E+03 -2.95134E+03  3.88197E+03  7.44125E+02
 -4.06440E+01  3.02780E+03 -3.45631E+03  4.06693E+03 -4.98030E+03  2.97350E+03 -4.56756E+03 -9.93306E+02
 -2.91176E+03 -6.06511E+03  1.34692E+03 -6.68048E+03  6.26275E+03 -4.42882E+03  5.92232E+03  1.21832E+03
  4.55455E+03  5.72126E+03  3.69451E+02  7.38561E+03 -5.40056E+03  4.05472E+03 -5.17488E+03 -3.86950E+02
 -5.35359E+03 -5.16725E+03 -7.73586E+02 -4.46444E+03  2.47469E+03 -4.90558E+03  2.67799E+03 -2.85765E+03
  2.92451E+03 -5.69317E+01  4.51876E+01  8.73582E+02  6.80563E+02  1.33658E+02  2.15424E+02 -1.80107E+03
  3.13629E+03 -6.60565E+02  4.98784E+03  6.78432E+02  5.43393E+03  2.69181E+03  5.18592E+03  6.63195E+03
 -1.28671E+03  7.85715E+03 -7.33476E+03  6.43549E+03 -9.80012E+03  1.08544E+03 -7.77604E+03 -1.99981E+03
 -3.63844E+03 -5.80681E+03 -2.15034E+02 -4.93994E+03  2.25166E+03 -2.27314E+03  2.13217E+03 -2.03181E+03
  1.03227E+03 -1.35667E+03  1.83213E+03 -2.13292E+03  3.36798E+03 -1.32009E+03  3.15869E+03  3.70217E+02
  4.30098E+03  9.90241E+02  9.63952E+02  2.74738E+03 -1.27987E+03  2.67712E+03 -4.43927E+03  2.45016E+03
 -4.51063E+03 -1.23291E+03 -1.46112E+03 -3.32433E+03  2.80133E+02 -4.86191E+03  2.62582E+03 -4.65806E+03
  5.17885E+03 -3.36603E+03  6.22131E+03  9.29660E+01  4.42754E+03  3.87130E+03  1.54931E+03  5.81973E+03
 -1.83337E+03  5.69679E+03 -3.08768E+03  1.80007E+03 -1.59868E+03 -1.32793E+03 -5.67812E+02 -5.41136E+02
 -6.77657E+02  4.80641E+02 -9.36397E+02  2.53537E+03 -2.39800E+03  1.12774E+03 -4.45569E+03 -1.05412E+02
 -1.07964E+03 -4.39169E+03  1.00167E+03 -3.82537E+03  2.68978E+03 -3.49399E+03  2.76050E+03 -1.20847E+03
  3.62730E+03  2.03852E+03  1.88981E+03  2.99304E+03 -8.93796E+02  4.39033E+03 -2.55104E+03  1.80020E+03
 -3.37866E+03 -1.63421E+02 -3.13409E+03 -2.22614E+03 -2.81774E+02 -2.98596E+03  1.52767E+03 -1.84929E+03
  2.51483E+03 -1.14584E+03  1.61438E+03  1.95390E+02  5.86708E+02  1.96404E+03  3.43713E+02  8.61779E+02
  1.46521E+03  1.25521E+03  1.03719E+03  9.83272E+02  1.18555E+03  1.92081E+03  1.28197E+03  1.47449E+03
 -1.55302E+03  3.10778E+03 -2.26224E+03  4.28386E+03 -2.92705E+03  1.11389E+03 -3.93845E+03 -1.42967E+02
 -1.59644E+03 -3.11073E+03  4.50100E+02 -4.70195E+03  2.02121E+03 -2.25886E+03  3.14871E+03 -1.08012E+03
  2.27739E+03  2.17925E+03  9.26968E+02  2.79735E+03 -6.06075E+02  1.30025E+03 -7.05580E+02 -1.71823E+02
 -7.27390E+02 -1.66521E+03  1.48660E+03 -6.99677E+02  6.52161E+02 -1.29721E+03  1.08449E+03  5.63988E+02
  2.33539E+02 -1.84431E+00  1.00639E+03 -2.65903E+02 -5.20415E+02  8.95282E+02  1.36916E+03 -1.97255E+02
  1.05990E+02 -1.35427E+02  1.35940E+03  2.04659E+01  2.33197E+02  2.24968E+03  1.66422E+02  2.71212E+03
 -1.35113E+03  9.91250E+02 -2.19166E+03  2.48719E+02 -2.31635E+03 -8.30139E+02 -4.04322E+01 -8.95098E+02
  5.99239E+02 -5.35610E+02  7.18408E+02 -5.87069E+02  5.04257E+02  1.62361E+03 -6.32116E+02  9.43690E+02
 -1.72749E+03  1.29796E+02 -1.17862E+03 -8.61600E+02 -9.30270E+02 -1.85498E+03 -6.50058E+02 -5.66717E+02
  3.28542E+02 -7.49893E+01  2.65920E+02  8.31440E+01  1.07276E+03 -5.56276E+02  5.52325E+02  4.80927E+02
 -3.37916E+00  5.02714E+01 -1.15165E+03  2.63852E+02  9.92127E+02 -6.36803E+02  1.08103E+03 -9.55362E+02
  9.78976E+02  4.11254E+02  2.60820E+03  7.36571E+02  1.40422E+03  1.74697E+03 -2.46370E+02  1.48833E+03
 -1.96447E+03  1.26545E+02 -1.63768E+03 -2.86304E+02 -4.05418E+02 -1.67120E+03  5.93723E+02 -8.14560E+02
  1.09168E+03  2.62531E+02  2.44725E+02  5.65491E+02  3.79860E+02  1.41922E+03  3.68880E+02  1.05438E+03
 -3.60310E+02  9.54317E+02 -2.95035E+02  2.24788E+02 -9.64018E+01  7.16978E+02 -4.74637E+02  2.48983E+02
 -3.28068E+02  6.53996E+02 -2.06785E+03  8.55761E+02 -1.45617E+03  4.06087E+02 -1.79621E+03 -8.62927E+02
 -7.28870E+02 -2.52936E+03  6.37493E+02 -2.33540E+03  4.12909E+02 -1.91433E+03  2.64733E+03 -8.33647E+02
  1.96198E+03 -4.45499E+02  1.06826E+03  1.13563E+03 -8.75622E+02  8.64288E+02 -7.87311E+02  1.16435E+03
 -7.81570E+02  6.53783E+02 -4.61503E+02 -3.96597E+00 -1.72416E+02  2.42500E+02 -1.03498E+03 -4.44743E+01
 -4.24833E+02  1.92002E+01 -1.11122E+03  3.95704E+02  3.55496E+02 -4.87669E+02  9.75447E+01 -1.11922E+03
  1.17954E+03 -8.63728E+02  3.25085E+02  2.37351E+02  9.73549E+02  8.24146E+02 -3.78786E+02  1.56138E+03
 -7.00118E+02  1.34171E+03 -1.16997E+03  6.93543E+02 -1.31255E+03 -5.70936E+02 -1.26193E+03 -1.33563E+03
 -8.73779E+02 -1.18151E+03  7.03828E+01 -6.64538E+02  1.89564E+02 -6.81948E+02  4.48504E+02 -4.42803E+01
  2.38672E+02  1.10359E+03 -3.61488E+02  2.61311E+02 -4.32487E+02  2.37371E+02 -2.02078E+02 -3.00370E+02
  8.63676E+01 -2.24133E+02  6.86181E+01  5.57506E+02  2.27059E+02  3.03831E+02  4.08562E+02  4.39360E+02
 -5.85586E+02  8.60613E+02 -6.09127E+02 -4.80845E+02 -6.50138E+02 -4.84410E+02 -1.17347E+01 -4.77753E+02
  7.77555E+02  2.99993E+02  4.72262E+02  1.74784E+02  5.78258E+02 -1.14789E+03  6.21812E+02  4.37110E+02
  2.47821E+02  1.84977E+02  1.36037E+02  4.31262E+02 -3.78430E+02  6.42704E+02 -4.46225E+02  1.63708E+01
  2.05958E+02  8.80284E+01 -6.70513E+02 -2.37645E+02 -4.04679E+02  2.92864E+02 -9.47745E+02 -3.18186E+02
 -8.45697E+02  4.92857E+02 -2.33127E+02 -4.75305E+02  8.48107E+02 -1.62312E+03  4.83703E+02 -2.89076E+02
  6.75477E+02  6.02318E+01 -1.79891E+02 -2.96008E+02 -7.45740E+01  7.80761E+02 -4.64016E+02  3.43492E+02
