 $NMID ID='MM_0lb_SNR400_17hz_g55_95.RAW', FMTDAT='(8E13.5)'
 TRAMP=1., VOLUME=1. $END
  3.09325E+05  5.44540E+02  3.37549E+05  2.50819E+05  8.48942E+04  3.37758E+05 -1.32670E+05  2.50708E+05
 -1.90290E+05  8.30314E+04 -1.11807E+05 -3.29294E+04  9.34498E+02 -5.03675E+04  5.38626E+04  2.84675E+02
  3.57145E+04  5.26621E+04 -1.69080E+04  7.54334E+04 -6.06696E+04  6.35760E+04 -8.33868E+04  3.18520E+04
 -8.08689E+04 -1.15881E+04 -5.69239E+04 -5.10342E+04 -1.48557E+04 -6.90329E+04  2.68163E+04 -4.53570E+04
  3.97715E+04  3.46496E+03  1.49734E+04  4.70500E+04 -3.42238E+04  4.68785E+04 -6.65175E+04 -7.44715E+02
 -5.29330E+04 -5.60045E+04 -6.74251E+03 -7.67589E+04  3.39447E+04 -5.44911E+04  4.74303E+04 -1.67944E+04
  4.29879E+04  1.09643E+04  3.13183E+04  2.51915E+04  1.57542E+04  2.93718E+04 -5.46126E+03  2.75995E+04
 -2.23211E+04  1.21266E+04 -1.84979E+04 -5.09085E+03  4.72756E+03 -7.54132E+03  2.24460E+04  1.21070E+04
  7.86582E+03  3.47681E+04 -3.14760E+04  3.52085E+04 -6.22562E+04  1.92799E+03 -5.68951E+04 -4.18002E+04
 -1.19878E+04 -6.25466E+04  3.91036E+04 -4.45660E+04  5.70093E+04 -1.71479E+03  3.37935E+04  3.13055E+04
 -6.29874E+03  3.46657E+04 -2.94778E+04  1.49459E+04 -2.91813E+04 -4.09002E+03 -1.56293E+04 -9.72000E+03
 -8.07968E+03 -1.28421E+04 -3.79093E+02 -1.71261E+04  7.27868E+03 -2.28474E+04  1.52941E+04 -1.32650E+04
  1.16476E+04  4.76768E+03 -7.18885E+03  1.32068E+04 -2.05537E+04 -3.40114E+03 -8.00937E+03 -3.23697E+04
  2.20141E+04 -4.19891E+04  4.75932E+04 -1.88370E+04  4.39782E+04  1.89340E+04  1.50179E+04  4.34457E+04
 -1.59064E+04  3.23553E+04 -2.48313E+04  1.12636E+03 -9.02949E+03 -2.77156E+04  2.06314E+04 -3.28046E+04
  3.96177E+04 -8.24186E+03  3.45780E+04  2.31919E+04  1.76050E+04  4.51726E+04 -8.46897E+03  4.75139E+04
 -2.99691E+04  3.21711E+04 -3.99444E+04  8.50957E+03 -4.06532E+04 -1.66352E+04 -2.26275E+04 -3.61457E+04
  6.83028E+03 -3.66460E+04  3.06618E+04 -1.36510E+04  2.83540E+04  1.09606E+04  3.17456E+03  1.83945E+04
 -1.29970E+04  7.88645E+03 -9.78012E+03 -7.74801E+03  5.42896E+03 -1.06068E+04  1.75196E+04  6.54930E+03
  1.33914E+04  2.21723E+04 -6.15832E+03  2.45107E+04 -2.14274E+04  1.11042E+04 -2.64871E+04 -4.58048E+03
 -1.92277E+04 -1.67663E+04 -7.45219E+03 -1.88193E+04  4.15617E+03 -1.72694E+04  1.48638E+04 -1.68182E+04
  2.39287E+04 -1.23197E+04  3.08261E+04  1.71723E+03  2.26557E+04  1.86417E+04  3.94521E+03  3.46394E+04
 -1.67540E+04  2.97695E+04 -2.63795E+04  1.01037E+04 -2.01949E+04 -1.00061E+04 -4.14246E+03 -1.36771E+04
  1.98724E+03 -3.35146E+03 -3.83036E+03  6.44244E+03 -1.49339E+04  5.29241E+03 -1.44033E+04 -6.10134E+03
 -9.29768E+03 -1.72843E+04  4.43464E+03 -2.10087E+04  1.35693E+04 -1.50602E+04  1.62118E+04 -1.71261E+03
  1.01589E+04  1.21087E+04 -1.39115E+03  1.75163E+04 -1.11129E+04  9.73764E+03 -1.72620E+04 -3.59006E+03
 -1.27944E+04 -1.56626E+04 -1.58385E+03 -2.09129E+04  9.78585E+03 -1.71072E+04  1.74470E+04 -8.22548E+03
  1.69921E+04  5.25245E+02  1.15604E+04  3.33875E+03  6.08213E+03  1.31659E+03  7.92842E+03 -1.23151E+03
  1.56236E+04  2.99312E+03  1.75089E+04  1.42774E+04  1.06864E+04  2.76375E+04 -3.73567E+03  3.04006E+04
 -1.78473E+04  2.37766E+04 -2.83163E+04  1.18367E+04 -2.92790E+04 -2.15780E+03 -2.46552E+04 -1.70112E+04
 -1.10094E+04 -2.45666E+04  8.09088E+03 -2.15811E+04  1.94859E+04 -1.19710E+04  1.74562E+04  4.74258E+03
  6.65151E+03  1.20777E+04 -7.53811E+03  1.16426E+04 -1.46693E+04  3.41614E+03 -1.10083E+04 -8.47736E+03
 -9.80965E+01 -1.42537E+04  6.57983E+03 -1.04290E+04  8.76257E+03 -1.19672E+03  1.49354E+03  6.01042E+03
 -6.59199E+03  1.97632E+03 -5.05274E+03 -5.06432E+03  1.56185E+02 -1.22856E+04  8.89676E+03 -1.19606E+04
  1.47229E+04 -5.54959E+03  1.46239E+04  2.99535E+03  1.28363E+04  1.14176E+04  5.61374E+03  1.66836E+04
 -2.41887E+03  1.90037E+04 -1.19941E+04  1.20517E+04 -1.33313E+04  3.65862E+03 -9.27971E+03 -2.65731E+03
 -5.01803E+03 -4.14660E+03 -1.37221E+02  1.01706E+03 -2.21500E+03  2.74055E+03 -4.62067E+03  4.57710E+03
 -9.07580E+03 -7.78972E+02 -9.74522E+03 -8.00944E+03 -4.09180E+03 -1.36810E+04  3.26028E+03 -9.57304E+03
  8.31487E+03 -4.11509E+03  5.93468E+03  2.51464E+03  1.20791E+02  3.78108E+03 -3.59963E+03 -5.51242E+02
 -3.85206E+03 -6.52395E+03 -1.67996E+02 -8.98356E+03  4.93349E+03 -9.32295E+03  1.14116E+04 -3.92129E+03
  1.39365E+04  1.37788E+03  9.88903E+03  8.02297E+03  2.12826E+03  1.01321E+04 -5.66730E+03  9.26736E+03
 -7.31719E+03  2.68962E+03 -3.94418E+03 -1.58823E+03  1.49901E+03 -2.26364E+03  5.52920E+03 -1.22490E+03
  4.11338E+03  4.20975E+03  8.30659E+02  7.19775E+03 -5.24322E+03  6.79532E+03 -9.24969E+03  2.04674E+03
 -6.12986E+03 -4.10222E+03  9.85305E+02 -7.23594E+03  4.34663E+03 -4.41967E+03  4.34209E+03  1.40394E+03
  1.06691E+03  4.27322E+03 -4.62286E+03  6.36550E+03 -6.01435E+03  2.31965E+03 -5.50737E+03 -2.05838E+03
 -3.57306E+03 -7.72021E+03  2.19154E+03 -8.68855E+03  7.12016E+03 -5.81450E+03  8.05541E+03  1.81921E+03
  5.85467E+03  6.84760E+03  7.36979E+02  8.57394E+03 -6.05612E+03  4.95569E+03 -6.66442E+03 -4.74559E+02
 -6.73834E+03 -5.75101E+03 -7.43938E+02 -5.58427E+03  3.15854E+03 -5.46843E+03  2.78276E+03 -2.97205E+03
  2.89917E+03  3.69293E+02 -3.46969E+02  1.44616E+03  9.60606E+02 -9.46771E+02  3.73420E+02 -2.32240E+03
  4.86140E+03 -1.69502E+03  7.08528E+03  3.47052E+02  6.74942E+03  4.17340E+03  6.29472E+03  8.91354E+03
 -1.63786E+03  1.06853E+04 -8.73796E+03  8.40522E+03 -1.19547E+04  1.23931E+03 -9.38043E+03 -3.46983E+03
 -5.22415E+03 -7.90024E+03 -5.36467E+02 -6.99052E+03  2.48322E+03 -2.47383E+03  2.30617E+03 -2.20181E+03
  1.53633E+03 -1.78664E+03  2.75535E+03 -2.27712E+03  3.19850E+03 -1.56323E+03  4.47509E+03  3.52208E+02
  4.89378E+03  1.15941E+03  1.69305E+03  4.24700E+03 -1.52258E+03  4.69908E+03 -6.09238E+03  3.15376E+03
 -5.66274E+03 -1.26517E+03 -3.38009E+03 -3.88260E+03 -2.83235E+02 -5.80298E+03  3.73174E+03 -7.01554E+03
  5.96814E+03 -3.97724E+03  8.37616E+03  6.25023E+02  6.42768E+03  6.36259E+03  1.01524E+03  7.19610E+03
 -2.53467E+03  6.48256E+03 -3.76252E+03  2.34420E+03 -3.11662E+03 -1.82456E+03 -6.32386E+02 -9.10906E+02
 -3.22826E+02 -1.15132E+02 -1.15999E+03  2.27872E+03 -3.60189E+03  1.26980E+03 -4.35782E+03 -8.43202E+02
 -1.96956E+03 -4.96358E+03  8.19353E+02 -6.62192E+03  3.45896E+03 -5.68913E+03  5.04264E+03 -1.62540E+03
  5.15577E+03  2.70977E+03  2.32009E+03  4.79567E+03 -1.02731E+03  5.54183E+03 -3.53705E+03  3.48228E+03
 -4.87364E+03  3.26965E+02 -4.42218E+03 -3.68415E+03 -2.19348E+02 -4.89262E+03  1.80763E+03 -2.61925E+03
  3.76250E+03 -1.36489E+03  2.31082E+03  7.25818E+02  5.95477E+02  1.98664E+03  1.41972E+03  6.60485E+02
  2.28051E+03  5.08129E+02  1.34719E+03  9.10875E+02  1.78080E+03  3.04891E+03  1.41740E+03  2.05271E+03
 -1.37072E+03  4.11640E+03 -3.55215E+03  4.73148E+03 -4.07702E+03  9.71135E+02 -5.37217E+03 -1.07013E+03
 -3.39151E+03 -4.69421E+03  1.00496E+03 -5.44556E+03  2.52296E+03 -3.25444E+03  4.06731E+03 -1.33551E+03
  2.86294E+03  2.18431E+03  7.61381E+02  2.86369E+03 -1.10438E+03  1.67501E+03 -1.74344E+03  3.44345E+02
 -1.20525E+03 -1.94686E+03  1.76260E+03 -1.43521E+03  2.00503E+03 -1.24707E+03  1.84145E+03  3.81596E+02
  1.47399E+03  6.43580E+02  1.33745E+03  5.73265E+02 -8.80413E+01  1.36103E+03  1.52226E+03 -1.77650E+02
  1.25097E+02 -8.55946E+02  2.10522E+03  8.41744E+02  7.99199E+02  2.78598E+03 -4.58239E+02  3.11865E+03
 -2.05616E+03  1.85628E+03 -3.10686E+03  1.05568E+03 -2.85802E+03 -1.02562E+03 -1.10903E+02 -1.18374E+03
  3.91307E+02 -1.18843E+03  1.09368E+03 -7.39762E+02  1.16897E+03  1.84350E+03 -5.50527E+02  1.73348E+03
 -1.75972E+03  1.44555E+03 -1.98664E+03 -1.12740E+03 -1.03029E+03 -2.74655E+03  4.93438E+02 -2.39437E+03
  1.14030E+03 -1.12997E+03  9.56536E+02  3.95564E+01  1.94566E+03  2.38755E+01  1.75281E+02  1.14608E+03
 -6.39814E+02 -1.82525E+01 -1.01708E+03 -6.79120E+02  7.63914E+02 -1.23822E+03  2.37513E+03 -1.49812E+03
  1.93443E+03  3.20371E+02  3.12761E+03  1.03755E+03  1.30242E+03  2.43289E+03 -1.67146E+02  2.76067E+03
 -2.38173E+03  1.06308E+03 -2.24325E+03 -1.25532E+02 -1.15119E+03 -2.00148E+03  7.45620E+02 -8.14436E+02
  1.81445E+03 -1.06702E+03  1.61108E+03  6.39752E+02  4.01894E+02  1.26324E+03  7.59540E+02  2.05878E+03
 -3.87459E+02  1.29036E+03 -7.60759E+02  2.78047E+02 -9.69438E+01  2.66370E+02 -5.48971E+02  4.82502E+02
 -5.09326E+02  1.66004E+03 -1.98462E+03  2.44271E+02 -2.64726E+03  5.35223E+02 -2.54717E+03 -1.48741E+03
 -1.65331E+03 -2.90379E+03  7.97091E+02 -3.80350E+03  1.67349E+03 -2.66809E+03  3.56459E+03 -1.47863E+03
  2.91353E+03 -3.64269E+02  2.04922E+03  2.33418E+03 -2.78409E+02  2.34214E+03 -1.25377E+03  2.28216E+03
 -1.08082E+03  1.10318E+03 -9.01561E+02 -2.42626E+02 -5.38557E+02 -2.04051E+02 -5.75388E+02  6.21292E+02
 -1.26637E+03 -6.71663E+02 -1.10984E+03  1.22161E+03  2.34079E+02 -8.39617E+02 -6.41749E+02 -8.50106E+02
  1.49373E+03 -1.01167E+03  1.31432E+03 -2.52107E+02  1.34905E+03  1.56602E+03 -3.26038E+02  2.18472E+03
 -1.29665E+03  2.65902E+03 -2.01198E+03  1.89455E+03 -2.43940E+03 -9.07717E+01 -1.54829E+03 -1.26051E+03
 -1.82004E+02 -1.51401E+03  2.73481E+02 -1.05664E+03  8.87687E+02 -6.34178E+02  1.77435E+03  1.29591E+02
  4.70095E+02  1.09715E+02  7.59886E+01  7.98633E+02 -1.04274E+01 -7.19098E+02 -3.70149E+02 -5.05187E+02
  6.81363E+02 -1.63972E+02  7.43661E+02  1.98841E+02  3.70433E+02  5.25125E+02  8.62018E+02  8.14780E+02
 -7.73345E+02  9.98984E+02 -7.89803E+02 -1.90447E+02 -6.86923E+02 -4.11334E+02  7.27971E+01 -1.79472E+03
  5.03336E+02 -7.92418E+02  8.67255E+02  1.36648E+02  1.35745E+03 -1.39484E+02  9.66371E+01  9.04796E+02
  4.79515E+02  9.34896E+02 -1.50363E+02  5.88679E+02 -8.95332E+02  5.87395E+02 -1.07176E+03 -1.97195E+02
 -7.71829E+02 -3.35195E+02 -8.82409E+01 -1.99221E+02 -8.68613E+01 -2.45025E+02 -9.97898E+02 -4.13866E+02
 -1.37353E+03 -2.32465E+02 -4.07675E+02 -1.76866E+03  5.42520E+02 -1.91866E+03  1.41296E+03 -5.25570E+02
  9.41681E+02  1.82408E+02 -5.19330E+02  6.78699E+02 -4.38560E+02  8.81451E+02 -1.11434E+03  1.03179E+03
