 $NMID ID='MM_0lb_SNR400_11hz_g50_82.RAW', FMTDAT='(8E13.5)'
 TRAMP=1., VOLUME=1. $END
  3.09719E+05 -3.16885E+02  3.37774E+05  2.51145E+05  8.47266E+04  3.37487E+05 -1.32426E+05  2.50949E+05
 -1.90423E+05  8.36656E+04 -1.12462E+05 -3.16005E+04  6.57570E+02 -5.01692E+04  5.31323E+04 -5.43673E+02
  3.62600E+04  5.29882E+04 -1.67272E+04  7.53982E+04 -6.11335E+04  6.42597E+04 -8.52495E+04  3.24243E+04
 -8.23928E+04 -1.18351E+04 -5.78895E+04 -5.15832E+04 -1.52659E+04 -7.09603E+04  2.77811E+04 -4.67055E+04
  4.08735E+04  3.20855E+03  1.63795E+04  4.80135E+04 -3.50681E+04  4.83265E+04 -6.77164E+04 -7.87495E+02
 -5.44168E+04 -5.72298E+04 -6.88809E+03 -7.80746E+04  3.41827E+04 -5.64886E+04  4.96576E+04 -1.79504E+04
  4.51331E+04  1.11878E+04  3.24123E+04  2.66495E+04  1.64457E+04  2.99557E+04 -5.10190E+03  2.79643E+04
 -2.19645E+04  1.26046E+04 -1.77257E+04 -5.62912E+03  6.62718E+03 -8.38538E+03  2.24729E+04  1.34877E+04
  7.23151E+03  3.59077E+04 -3.33755E+04  3.69478E+04 -6.51364E+04  2.60029E+03 -5.84868E+04 -4.41443E+04
 -1.27123E+04 -6.49118E+04  4.12794E+04 -4.61325E+04  6.02306E+04 -2.25956E+03  3.61640E+04  3.37224E+04
 -5.77749E+03  3.77288E+04 -3.15340E+04  1.81495E+04 -3.16638E+04 -4.61547E+03 -1.79560E+04 -1.13275E+04
 -8.80697E+03 -1.41179E+04 -6.95436E+02 -1.91962E+04  7.75563E+03 -2.36328E+04  1.56810E+04 -1.34055E+04
  1.10297E+04  4.98408E+03 -9.20950E+03  1.22979E+04 -2.21306E+04 -5.78348E+03 -8.49733E+03 -3.63652E+04
  2.44579E+04 -4.52802E+04  5.07767E+04 -2.08853E+04  4.68362E+04  2.03696E+04  1.58206E+04  4.57343E+04
 -1.62227E+04  3.50870E+04 -2.62331E+04  2.26712E+03 -1.16252E+04 -2.86646E+04  2.11466E+04 -3.66595E+04
  4.34558E+04 -9.92603E+03  3.83868E+04  2.45121E+04  1.98711E+04  4.90486E+04 -8.51978E+03  5.38392E+04
 -3.40408E+04  3.65716E+04 -4.53853E+04  1.06122E+04 -4.53187E+04 -1.78035E+04 -2.50525E+04 -4.08860E+04
  7.48384E+03 -4.03862E+04  3.35436E+04 -1.62174E+04  3.07682E+04  1.05645E+04  4.43185E+03  1.99442E+04
 -1.42171E+04  9.12817E+03 -1.10337E+04 -7.72654E+03  5.28461E+03 -1.11291E+04  1.83010E+04  6.07669E+03
  1.37958E+04  2.23205E+04 -5.38338E+03  2.58017E+04 -2.31503E+04  1.33215E+04 -2.97410E+04 -3.80699E+03
 -2.34924E+04 -1.83338E+04 -1.02901E+04 -2.36004E+04  4.29749E+03 -2.36194E+04  1.73207E+04 -2.09102E+04
  2.94909E+04 -1.33822E+04  3.58329E+04  3.83405E+03  2.47653E+04  2.27099E+04  5.64628E+03  3.94467E+04
 -1.88727E+04  3.26696E+04 -2.90731E+04  1.13252E+04 -2.18544E+04 -1.06881E+04 -4.97572E+03 -1.30228E+04
  1.44151E+03 -2.30118E+03 -7.52350E+03  7.92765E+03 -1.86559E+04  5.11278E+03 -1.89764E+04 -8.47462E+03
 -1.07198E+04 -2.19983E+04  5.62048E+03 -2.54386E+04  1.67554E+04 -1.89344E+04  2.03808E+04 -1.54467E+03
  1.33550E+04  1.54875E+04 -9.68176E+02  2.12619E+04 -1.49592E+04  1.25742E+04 -2.20759E+04 -4.27842E+03
 -1.55773E+04 -1.88794E+04 -2.57433E+03 -2.62193E+04  1.15940E+04 -2.12663E+04  2.10337E+04 -1.11033E+04
  1.93751E+04 -4.30741E+02  1.47586E+04  4.96223E+03  7.74479E+03  1.04411E+03  1.17242E+04 -1.88814E+03
  1.94494E+04  2.33172E+03  2.32348E+04  1.67271E+04  1.53161E+04  3.44285E+04 -2.84509E+03  3.95081E+04
 -2.31321E+04  3.33380E+04 -3.70489E+04  1.66838E+04 -3.95449E+04 -2.95135E+03 -3.23614E+04 -2.29770E+04
 -1.30469E+04 -3.27407E+04  1.18612E+04 -2.89281E+04  2.46715E+04 -1.44978E+04  2.22511E+04  6.91797E+03
  8.21819E+03  1.67071E+04 -1.05620E+04  1.44604E+04 -1.78805E+04  2.82024E+03 -1.32923E+04 -1.20403E+04
  1.77934E+02 -1.76862E+04  9.50376E+03 -1.31596E+04  1.18782E+04 -1.17784E+03  3.32626E+03  8.07360E+03
 -7.52610E+03  3.31413E+03 -7.93128E+03 -6.17056E+03 -1.42279E+03 -1.61421E+04  1.14293E+04 -1.75168E+04
  2.00884E+04 -9.89173E+03  2.25009E+04  3.34402E+03  1.98782E+04  1.52770E+04  9.64225E+03  2.52880E+04
 -4.88164E+03  2.77272E+04 -1.81968E+04  1.70086E+04 -1.97817E+04  3.78474E+03 -1.35895E+04 -5.25077E+03
 -5.66440E+03 -6.13569E+03 -9.42672E+02  5.78456E+02 -3.07089E+03  3.03850E+03 -6.49050E+03  4.99415E+03
 -1.32234E+04 -8.42359E+02 -1.28957E+04 -1.10089E+04 -5.66887E+03 -1.63339E+04  5.91605E+03 -1.39862E+04
  1.18468E+04 -5.66383E+03  8.54878E+03  3.70471E+03 -4.77871E+01  5.96797E+03 -6.88955E+03 -4.00845E+02
 -6.95818E+03 -8.57537E+03 -6.45557E+02 -1.34492E+04  7.61168E+03 -1.37731E+04  1.73826E+04 -7.32538E+03
  2.04920E+04  2.39525E+03  1.52527E+04  1.23179E+04  2.51873E+03  1.60603E+04 -8.65027E+03  1.37198E+04
 -1.11806E+04  4.26589E+03 -5.92333E+03 -2.54319E+03  1.35077E+03 -3.81484E+03  7.25620E+03 -7.64862E+02
  6.81318E+03  5.86849E+03  1.49057E+03  1.10069E+04 -7.50815E+03  1.04049E+04 -1.33631E+04  2.83242E+03
 -8.76596E+03 -8.01946E+03  3.89563E+02 -1.15760E+04  7.22543E+03 -6.22972E+03  8.51752E+03  2.50971E+03
  2.03142E+03  7.99218E+03 -6.51601E+03  1.03263E+04 -1.11439E+04  5.08443E+03 -1.15071E+04 -4.28188E+03
 -6.45028E+03 -1.29985E+04  3.39448E+03 -1.50893E+04  1.30201E+04 -9.47006E+03  1.40768E+04  2.19296E+03
  8.36602E+03  1.10644E+04 -1.28476E+03  1.37292E+04 -1.04620E+04  7.36351E+03 -9.96465E+03 -7.09120E+02
 -1.03240E+04 -9.03782E+03 -1.73505E+03 -9.53261E+03  5.41392E+03 -8.66951E+03  6.09144E+03 -3.14646E+03
  4.28716E+03  1.48973E+03 -7.92609E+02  2.51321E+03  5.04214E+02 -2.49739E+03  2.13603E+03 -5.64030E+03
  9.06904E+03 -3.65804E+03  1.28647E+04  8.98134E+02  1.25586E+04  9.14804E+03  9.42819E+03  1.74760E+04
 -3.92917E+03  1.99263E+04 -1.63296E+04  1.49211E+04 -2.14464E+04  2.69184E+03 -1.70760E+04 -7.87714E+03
 -8.35030E+03 -1.44914E+04 -4.28125E+02 -1.27213E+04  3.83808E+03 -6.76496E+03  4.93336E+03 -3.91512E+03
  2.99399E+03 -3.07608E+03  3.31133E+03 -3.61560E+03  5.85785E+03 -3.08398E+03  6.52238E+03 -9.42541E+02
  8.91236E+03  2.54093E+03  4.51426E+03  7.67408E+03 -2.74546E+03  8.74441E+03 -9.18651E+03  7.27476E+03
 -1.14782E+04 -1.15985E+03 -7.69334E+03 -8.46913E+03 -6.55346E+01 -1.29886E+04  7.15242E+03 -1.29923E+04
  1.25541E+04 -7.94342E+03  1.59434E+04  2.55660E+03  1.16260E+04  1.10077E+04  1.63345E+03  1.41397E+04
 -5.69938E+03  1.20397E+04 -7.98087E+03  3.91997E+03 -6.46790E+03 -1.79926E+03 -2.17665E+03 -1.81612E+03
 -7.60794E+02  3.43486E+02 -2.54090E+03  2.91514E+03 -5.57094E+03  2.27851E+03 -7.49610E+03 -1.98242E+03
 -5.28833E+03 -7.81893E+03 -4.79554E+02 -1.18744E+04  7.19038E+03 -1.19618E+04  1.20075E+04 -2.74194E+03
  1.10013E+04  4.80878E+03  5.20764E+03  9.84040E+03 -2.27962E+03  1.20698E+04 -8.50945E+03  7.22725E+03
 -1.07036E+04  8.32958E+02 -8.13147E+03 -6.70141E+03 -1.07835E+02 -1.02357E+04  4.60776E+03 -6.78706E+03
  7.20800E+03 -2.69842E+03  5.34372E+03  1.94213E+03  2.30611E+03  3.66289E+03  1.51163E+03  2.48262E+03
  2.06930E+03  1.44403E+03  2.72859E+03  1.93244E+03  3.35860E+03  4.99926E+03  3.09145E+03  5.93572E+03
 -2.26530E+03  9.11046E+03 -8.45005E+03  9.20508E+03 -1.17614E+04  3.02264E+03 -1.24153E+04 -4.84009E+03
 -6.26064E+03 -1.23170E+04  1.38722E+03 -1.28105E+04  6.59347E+03 -7.76616E+03  9.33031E+03 -2.34365E+03
  7.51260E+03  4.19166E+03  1.88946E+03  5.81452E+03 -3.09345E+03  4.36537E+03 -4.41126E+03 -8.56395E+02
 -1.09274E+03 -4.22591E+03  2.31730E+03 -4.65320E+03  5.03727E+03 -2.87255E+03  5.02024E+03  1.18279E+03
  2.41050E+03  2.00722E+03  1.06908E+03  1.70718E+03 -1.20833E+03  1.68362E+03  1.83216E+03 -2.58818E+02
  1.45519E+03 -9.28423E+02  4.42832E+03  2.11924E+03  2.09321E+03  6.24726E+03 -9.35095E+02  8.18320E+03
 -5.59558E+03  4.84633E+03 -7.33801E+03  1.04684E+03 -6.02576E+03 -2.29176E+03 -2.10538E+03 -4.63699E+03
  5.98710E+02 -4.77919E+03  3.49409E+03 -2.43633E+03  2.07000E+03  1.73365E+03 -1.31360E+03  4.37621E+03
 -4.73230E+03  2.38851E+03 -5.16979E+03 -3.29280E+03 -3.82484E+03 -6.96344E+03  6.41188E+02 -6.36786E+03
  4.35760E+03 -3.10591E+03  4.55633E+03 -7.19585E+02  4.29872E+03  9.40245E+02 -8.07927E+01  3.10953E+03
 -2.11573E+03  1.31418E+03 -2.55954E+03 -2.35186E+03  1.46531E+03 -4.58957E+03  5.18946E+03 -3.95546E+03
  6.79621E+03  2.22766E+02  6.98890E+03  4.91647E+03  2.54008E+03  7.22685E+03 -2.55778E+03  7.13882E+03
 -5.44214E+03  1.88307E+03 -5.55950E+03 -9.47274E+02 -3.22375E+03 -5.28294E+03  1.28218E+03 -4.65683E+03
  4.22376E+03 -1.86590E+03  4.60177E+03  2.09683E+03  1.49559E+03  4.13904E+03 -9.90737E+02  3.50435E+03
 -1.68870E+03  3.57932E+03 -1.77752E+03  9.34090E+02 -1.09786E+03  5.03721E+02 -1.26377E+03  1.29963E+03
 -1.94246E+03  3.22142E+03 -4.90090E+03  2.26183E+03 -7.79263E+03  4.77612E+02 -8.61993E+03 -4.48255E+03
 -4.99374E+03 -8.60626E+03  1.75072E+03 -1.17856E+04  6.60736E+03 -8.35484E+03  9.99618E+03 -3.36913E+03
  9.26760E+03  1.25054E+03  5.51323E+03  7.07190E+03  1.70949E+02  7.38430E+03 -2.78787E+03  5.51517E+03
 -3.98748E+03  2.32254E+03 -2.58736E+03 -8.09470E+02 -1.24497E+03 -2.46206E+02 -4.40881E+02  2.06644E+02
 -6.60894E+02 -6.93918E+02 -2.12007E+03  1.35038E+02 -1.54542E+03 -2.34274E+03 -3.08314E+02 -2.84477E+03
  3.40692E+03 -2.16784E+03  4.37314E+03  5.17806E+01  5.70411E+03  4.40635E+03  1.37686E+03  7.81740E+03
 -3.61124E+03  8.17649E+03 -7.77452E+03  5.11191E+03 -8.91746E+03  3.15074E+02 -6.71285E+03 -5.54893E+03
 -3.32896E+03 -7.17901E+03  2.18491E+03 -6.18944E+03  4.80333E+03 -3.66212E+03  5.57612E+03 -2.66579E+02
  1.94534E+03  2.50400E+03 -2.90913E+02  2.14924E+03 -1.28004E+03 -5.14643E+02 -2.94967E+02 -2.39931E+03
  2.74646E+03 -1.65078E+03  2.18252E+03  2.78950E+02  1.72539E+03  2.26505E+03  5.61052E+02  4.15588E+03
 -3.06582E+03  3.72460E+03 -4.77162E+03  5.16851E+01 -4.44275E+03 -4.23111E+03 -2.24443E+02 -6.31033E+03
  3.15294E+03 -5.15706E+03  5.57217E+03 -1.37518E+03  5.53370E+03  4.27184E+02  3.16338E+03  4.77872E+03
  1.35332E+03  4.96005E+03 -8.27778E+02  3.94037E+03 -3.41679E+03  2.50442E+03 -2.86364E+03 -1.32680E+02
 -1.73613E+03 -4.76776E+02 -6.41771E+02  5.41548E+02 -2.75505E+03  4.79983E+02 -3.09318E+03 -1.54116E+03
 -4.01164E+03 -2.12479E+03 -1.49029E+03 -5.21676E+03  1.89304E+03 -5.00214E+03  4.11970E+03 -2.06631E+03
  4.59724E+03  7.44623E+02  3.39515E+03  3.05793E+03 -5.48392E+02  4.61213E+03 -3.50311E+03  4.05699E+03
