 $NMID ID='MM_0lb_SNR400_13hz_g55_81.RAW', FMTDAT='(8E13.5)'
 TRAMP=1., VOLUME=1. $END
  3.10232E+05  7.54925E+02  3.38488E+05  2.50925E+05  8.50341E+04  3.38614E+05 -1.32306E+05  2.51212E+05
 -1.90434E+05  8.33950E+04 -1.11897E+05 -3.23905E+04  9.55769E+02 -5.07649E+04  5.38922E+04 -4.05150E+02
  3.58295E+04  5.36344E+04 -1.67542E+04  7.58615E+04 -6.09802E+04  6.36391E+04 -8.49926E+04  3.23938E+04
 -8.20078E+04 -1.07984E+04 -5.73895E+04 -5.22241E+04 -1.53095E+04 -6.95492E+04  2.77505E+04 -4.64984E+04
  4.05714E+04  4.13424E+03  1.70509E+04  4.79851E+04 -3.46787E+04  4.75598E+04 -6.79300E+04 -3.39804E+02
 -5.45323E+04 -5.74005E+04 -6.57921E+03 -7.75843E+04  3.43635E+04 -5.57025E+04  4.89361E+04 -1.75184E+04
  4.41753E+04  1.12524E+04  3.22397E+04  2.56439E+04  1.58508E+04  2.98699E+04 -5.02974E+03  2.78277E+04
 -2.18248E+04  1.18719E+04 -1.79940E+04 -5.37500E+03  5.88022E+03 -7.14785E+03  2.24317E+04  1.28572E+04
  6.88118E+03  3.56620E+04 -3.32294E+04  3.60423E+04 -6.50324E+04  2.51594E+03 -5.75881E+04 -4.30112E+04
 -1.25083E+04 -6.42499E+04  4.11340E+04 -4.63351E+04  5.87415E+04 -1.80461E+03  3.52208E+04  3.30978E+04
 -5.39629E+03  3.77189E+04 -3.07304E+04  1.68876E+04 -3.16113E+04 -3.76227E+03 -1.76257E+04 -1.11472E+04
 -8.84025E+03 -1.37599E+04 -1.25509E+03 -1.95166E+04  7.51792E+03 -2.32009E+04  1.58954E+04 -1.32495E+04
  1.14928E+04  6.67680E+03 -9.37758E+03  1.27100E+04 -2.19392E+04 -4.62734E+03 -8.70523E+03 -3.54567E+04
  2.37405E+04 -4.51187E+04  4.97831E+04 -2.03413E+04  4.61546E+04  2.02873E+04  1.60993E+04  4.51410E+04
 -1.64852E+04  3.39318E+04 -2.62573E+04  1.87184E+03 -1.06634E+04 -2.76456E+04  2.12162E+04 -3.51052E+04
  4.23233E+04 -9.24913E+03  3.70862E+04  2.44436E+04  1.89744E+04  4.71962E+04 -8.08699E+03  5.25844E+04
 -3.23714E+04  3.58014E+04 -4.36225E+04  9.64569E+03 -4.46861E+04 -1.83491E+04 -2.40261E+04 -3.92850E+04
  7.71203E+03 -3.90818E+04  3.28724E+04 -1.50597E+04  3.01829E+04  1.12571E+04  4.39477E+03  1.95180E+04
 -1.35000E+04  8.18933E+03 -1.10055E+04 -8.03011E+03  5.59210E+03 -1.02628E+04  1.85414E+04  6.07458E+03
  1.34026E+04  2.20638E+04 -5.11220E+03  2.57335E+04 -2.31182E+04  1.25300E+04 -2.90704E+04 -3.58960E+03
 -2.24467E+04 -1.83504E+04 -8.98817E+03 -2.15437E+04  4.37159E+03 -2.20918E+04  1.68604E+04 -2.00232E+04
  2.86048E+04 -1.28661E+04  3.45101E+04  4.14855E+03  2.49844E+04  2.17143E+04  3.59440E+03  3.82574E+04
 -1.85758E+04  3.20091E+04 -2.89140E+04  1.20966E+04 -2.08784E+04 -1.06706E+04 -4.57974E+03 -1.30232E+04
  5.44685E+02 -2.35304E+03 -5.80513E+03  7.55893E+03 -1.80803E+04  4.87097E+03 -1.81039E+04 -8.23907E+03
 -1.05997E+04 -2.03568E+04  5.07799E+03 -2.47171E+04  1.61533E+04 -1.70922E+04  1.91254E+04 -2.04513E+03
  1.24203E+04  1.37909E+04 -1.14570E+03  2.05265E+04 -1.38002E+04  1.18521E+04 -2.06061E+04 -3.94948E+03
 -1.46073E+04 -1.82967E+04 -1.86904E+03 -2.47455E+04  1.07063E+04 -2.01753E+04  2.05281E+04 -1.01301E+04
  1.85727E+04  7.22430E+01  1.35608E+04  4.70354E+03  7.68750E+03  8.89229E+02  1.01968E+04 -2.80450E+03
  1.85195E+04  2.90243E+03  2.09903E+04  1.57082E+04  1.43218E+04  3.20283E+04 -2.53468E+03  3.67754E+04
 -2.13774E+04  3.02305E+04 -3.46190E+04  1.56575E+04 -3.71959E+04 -2.57374E+03 -3.04973E+04 -2.10882E+04
 -1.26268E+04 -3.01539E+04  1.08720E+04 -2.63994E+04  2.35953E+04 -1.45127E+04  2.16680E+04  5.82345E+03
  7.75473E+03  1.59813E+04 -8.85948E+03  1.32951E+04 -1.68742E+04  2.25354E+03 -1.29895E+04 -1.12625E+04
  7.86188E+01 -1.69886E+04  8.61711E+03 -1.22935E+04  1.04991E+04 -1.67045E+03  2.48462E+03  7.37480E+03
 -7.42299E+03  3.30972E+03 -6.25267E+03 -6.56419E+03 -1.60210E+03 -1.47432E+04  1.03144E+04 -1.59890E+04
  1.84908E+04 -8.49855E+03  1.97392E+04  2.40460E+03  1.73237E+04  1.50808E+04  7.58163E+03  2.36417E+04
 -4.10570E+03  2.46245E+04 -1.57861E+04  1.53015E+04 -1.78856E+04  3.50104E+03 -1.18550E+04 -4.12161E+03
 -5.86759E+03 -5.33418E+03 -6.23186E+02  1.07224E+03 -2.42741E+03  2.84948E+03 -5.56558E+03  4.93404E+03
 -1.19552E+04 -4.91372E+02 -1.22782E+04 -9.88192E+03 -5.16391E+03 -1.66117E+04  5.44312E+03 -1.25255E+04
  1.04226E+04 -4.75079E+03  7.34105E+03  3.57216E+03  1.67475E+01  4.38971E+03 -6.14625E+03 -2.08732E+02
 -5.64280E+03 -8.17783E+03 -3.30405E+02 -1.14086E+04  6.85867E+03 -1.24511E+04  1.57603E+04 -6.36581E+03
  1.87948E+04  1.11172E+03  1.31295E+04  1.02873E+04  2.33870E+03  1.52085E+04 -8.09063E+03  1.33570E+04
 -9.34654E+03  3.91207E+03 -4.98385E+03 -2.63477E+03  2.08299E+03 -3.05883E+03  7.26918E+03 -1.71245E+03
  5.89267E+03  5.30704E+03  7.07580E+02  9.72238E+03 -6.87258E+03  1.02234E+04 -1.10134E+04  2.50126E+03
 -8.58593E+03 -5.99861E+03 -4.37192E+02 -1.05854E+04  5.82991E+03 -5.38001E+03  6.51310E+03  2.32427E+03
  1.34039E+03  7.33443E+03 -5.96114E+03  8.62154E+03 -1.00827E+04  3.90736E+03 -9.53251E+03 -3.76391E+03
 -5.35210E+03 -1.08899E+04  2.65176E+03 -1.31362E+04  1.08449E+04 -8.21998E+03  1.20995E+04  1.36767E+03
  7.85127E+03  9.37988E+03 -1.77263E+03  1.17819E+04 -8.78829E+03  7.03718E+03 -8.45705E+03 -1.16099E+03
 -7.87839E+03 -8.77199E+03 -1.90408E+03 -9.41529E+03  4.54321E+03 -7.06577E+03  5.06658E+03 -2.90844E+03
  4.14510E+03  1.13437E+03 -7.51312E+02  1.65230E+03 -5.30721E+02 -1.76467E+03  2.22098E+03 -4.67268E+03
  7.79829E+03 -3.18719E+03  1.12407E+04  1.47994E+03  1.04222E+04  7.67839E+03  7.72544E+03  1.44354E+04
 -2.91345E+03  1.70251E+04 -1.38344E+04  1.23236E+04 -1.84410E+04  1.65928E+03 -1.47352E+04 -5.90060E+03
 -7.44604E+03 -1.26818E+04  9.75490E+01 -9.63585E+03  3.58937E+03 -5.64275E+03  3.56904E+03 -3.89005E+03
  2.52467E+03 -2.53869E+03  2.93060E+03 -2.70028E+03  4.55470E+03 -2.76162E+03  5.74269E+03 -4.84674E+02
  8.40793E+03  1.69308E+03  3.62196E+03  6.69296E+03 -1.54249E+03  7.41568E+03 -7.56937E+03  5.92461E+03
 -1.02109E+04 -5.58620E+02 -5.16432E+03 -6.68480E+03  1.41380E+02 -1.06910E+04  6.23353E+03 -1.03965E+04
  1.06131E+04 -6.65215E+03  1.29602E+04  1.24474E+03  9.50759E+03  9.57432E+03  1.99667E+03  1.21436E+04
 -5.24276E+03  9.65764E+03 -6.33722E+03  3.49233E+03 -3.30692E+03 -1.14425E+03 -1.83379E+03 -1.18002E+03
 -8.31210E+02  5.57088E+02 -2.19281E+03  2.21867E+03 -4.62721E+03  2.23375E+03 -7.53918E+03 -1.04499E+03
 -4.48760E+03 -7.12265E+03  4.29076E+02 -9.50151E+03  6.25373E+03 -8.48478E+03  8.78345E+03 -2.39944E+03
  9.34504E+03  4.65679E+03  4.52113E+03  8.19035E+03 -1.74375E+03  1.00061E+04 -6.45092E+03  6.24593E+03
 -8.76539E+03  6.80327E+02 -7.06898E+03 -6.18431E+03 -6.72777E+02 -7.67810E+03  3.87332E+03 -5.85632E+03
  5.92267E+03 -2.02936E+03  3.69476E+03  1.60734E+03  1.25470E+03  3.14256E+03  1.00280E+03  1.31555E+03
  1.92659E+03  1.43284E+03  2.58845E+03  1.78656E+03  2.34380E+03  4.16762E+03  3.14038E+03  4.79117E+03
 -2.31942E+03  7.29847E+03 -6.57679E+03  7.45025E+03 -8.45864E+03  2.00049E+03 -1.01911E+04 -3.76850E+03
 -4.29632E+03 -8.64452E+03  1.40893E+03 -9.78264E+03  5.69980E+03 -6.65786E+03  7.85795E+03 -2.35404E+03
  5.62527E+03  3.36646E+03  1.44002E+03  4.80210E+03 -2.37104E+03  3.13380E+03 -3.27789E+03 -9.66356E+02
 -1.48374E+03 -4.59825E+03  2.76167E+03 -4.10603E+03  3.63810E+03 -1.87136E+03  3.46173E+03  1.22901E+03
  1.85922E+03  1.08013E+03  9.35542E+02  4.23826E+02 -9.12895E+02  1.44453E+03  1.43819E+03 -7.77144E+01
  1.30039E+03 -8.71671E+02  4.06657E+03  1.68367E+03  1.31068E+03  4.79405E+03 -8.55876E+02  6.42762E+03
 -4.05275E+03  3.50291E+03 -5.93619E+03  1.92996E+03 -5.53937E+03 -2.21636E+03 -1.67223E+03 -3.94147E+03
 -8.91114E+01 -3.85222E+03  3.16061E+03 -1.11193E+03  1.61312E+03  2.18570E+03 -1.22404E+03  2.44175E+03
 -4.50699E+03  1.65551E+03 -3.77438E+03 -2.43819E+03 -1.93808E+03 -4.63619E+03  1.34687E+02 -4.73029E+03
  2.44639E+03 -2.86028E+03  3.27791E+03 -6.36375E+02  3.56622E+03  7.65718E+02  1.05506E+03  2.37985E+03
 -8.44356E+02  9.01614E+02 -2.11085E+03 -1.33872E+03  9.24648E+02 -3.25615E+03  4.65801E+03 -3.60221E+03
  3.94308E+03  7.81844E+02  6.08609E+03  3.96566E+03  1.74546E+03  5.03592E+03 -1.47780E+03  5.51952E+03
 -4.59983E+03  1.54290E+03 -4.74411E+03 -6.23372E+02 -2.58373E+03 -4.75452E+03  1.22458E+03 -2.92893E+03
  3.98445E+03 -1.86512E+03  2.91301E+03  9.53945E+02  1.18426E+03  3.12109E+03  2.29492E+02  2.75626E+03
 -1.68919E+03  1.46143E+03 -6.85760E+02  5.97558E+02 -4.68394E+02  9.24032E+02 -1.26294E+03  1.30687E+03
 -1.23738E+03  1.99332E+03 -2.87366E+03  1.68270E+03 -4.89479E+03 -2.61294E+02 -6.41415E+03 -2.90345E+03
 -3.03531E+03 -6.59973E+03  8.86052E+02 -8.40335E+03  4.49418E+03 -6.45247E+03  7.51612E+03 -2.65247E+03
  6.70503E+03  9.97368E+02  4.23800E+03  4.65131E+03  7.53645E+02  4.82712E+03 -2.24191E+03  3.74175E+03
 -3.07555E+03  1.66147E+03 -2.00588E+03 -7.87646E+02 -6.72156E+02  6.63197E+02 -1.02004E+03  6.13141E+02
 -1.37880E+03  5.70507E+02 -1.89833E+03 -6.47226E+02  3.67437E+02 -8.57532E+02 -5.50405E+02 -2.15496E+03
  2.50730E+03 -1.41504E+03  2.52339E+03 -3.81724E+02  3.17345E+03  3.39269E+03  8.14162E+02  4.60080E+03
 -2.54615E+03  6.03506E+03 -5.05486E+03  3.40458E+03 -6.13569E+03 -4.46536E+02 -4.21065E+03 -3.77129E+03
 -2.12234E+03 -4.68684E+03  6.57046E+02 -4.50783E+03  2.50233E+03 -2.35500E+03  2.28891E+03  5.27148E+02
  1.69771E+03  9.70568E+02 -1.24192E+02  1.32420E+03 -1.02700E+03 -5.60244E+01 -6.41618E+02 -9.52183E+02
  1.07602E+03  7.38313E+01  1.24172E+03  1.23206E+03  1.24507E+03  2.06627E+03  3.22671E+02  2.33609E+03
 -2.22919E+03  2.22726E+03 -3.09823E+03 -8.86214E+01 -2.50144E+03 -1.66571E+03 -6.72834E+02 -3.67286E+03
  1.23739E+03 -3.29378E+03  3.37464E+03 -4.63849E+02  3.53972E+03  1.13774E+03  2.17287E+03  3.04446E+03
  9.57934E+02  2.96707E+03 -1.29452E+03  2.33634E+03 -2.28281E+03  1.36781E+03 -1.50101E+03  3.15584E+02
 -1.05526E+03 -2.29359E+02 -1.06224E+03  1.84034E+02 -1.81631E+03  7.54818E+02 -2.57578E+03 -1.44588E+02
 -2.37780E+03 -1.91500E+03 -1.07618E+03 -2.48806E+03  1.08971E+03 -3.68534E+03  3.02051E+03 -1.86864E+03
  2.62502E+03  6.81867E+02  1.58717E+03  2.25342E+03 -6.32670E+02  3.50451E+03 -2.89858E+03  2.56641E+03
