 $NMID ID='MM_0lb_SNR400_17hz_g45_20.RAW', FMTDAT='(8E13.5)'
 TRAMP=1., VOLUME=1. $END
  3.09691E+05  3.90691E+02  3.37303E+05  2.50280E+05  8.47560E+04  3.37907E+05 -1.32557E+05  2.50624E+05
 -1.89733E+05  8.25838E+04 -1.11153E+05 -3.30120E+04  2.01455E+03 -5.03151E+04  5.38510E+04 -4.82392E+01
  3.52564E+04  5.31334E+04 -1.70889E+04  7.50492E+04 -6.07306E+04  6.31598E+04 -8.29413E+04  3.13471E+04
 -8.03478E+04 -1.16321E+04 -5.68344E+04 -5.08020E+04 -1.43340E+04 -6.88555E+04  2.67754E+04 -4.43266E+04
  3.94051E+04  3.88446E+03  1.54728E+04  4.71998E+04 -3.38995E+04  4.62846E+04 -6.58721E+04 -2.09465E+02
 -5.23987E+04 -5.63559E+04 -6.24308E+03 -7.56037E+04  3.30495E+04 -5.37206E+04  4.65289E+04 -1.70505E+04
  4.14283E+04  1.12505E+04  3.09831E+04  2.45370E+04  1.57840E+04  2.87922E+04 -4.37356E+03  2.69218E+04
 -2.17154E+04  1.25207E+04 -1.93619E+04 -4.14107E+03  4.62224E+03 -7.59498E+03  2.18535E+04  1.07477E+04
  7.43123E+03  3.36312E+04 -3.08781E+04  3.42113E+04 -6.16772E+04  1.56528E+03 -5.53711E+04 -4.22838E+04
 -1.27413E+04 -6.13082E+04  3.81872E+04 -4.37609E+04  5.61139E+04 -1.76080E+03  3.23981E+04  3.11675E+04
 -6.21865E+03  3.44339E+04 -2.90782E+04  1.39943E+04 -2.83264E+04 -5.29201E+03 -1.50607E+04 -1.05058E+04
 -7.33202E+03 -1.21479E+04 -6.40360E+02 -1.57437E+04  6.93026E+03 -2.29053E+04  1.53030E+04 -1.43987E+04
  1.14005E+04  4.10771E+03 -6.33602E+03  1.28475E+04 -1.99405E+04 -2.89000E+03 -7.89551E+03 -3.15268E+04
  2.11657E+04 -4.14788E+04  4.52698E+04 -1.85111E+04  4.29233E+04  1.84633E+04  1.40835E+04  4.22350E+04
 -1.61257E+04  3.13224E+04 -2.36519E+04  1.03109E+03 -8.59155E+03 -2.64748E+04  2.05793E+04 -3.13708E+04
  3.83824E+04 -7.74102E+03  3.28585E+04  2.30335E+04  1.62409E+04  4.37272E+04 -8.09438E+03  4.64302E+04
 -2.96727E+04  3.08948E+04 -3.86924E+04  8.92648E+03 -3.98526E+04 -1.51858E+04 -2.23410E+04 -3.54101E+04
  7.21981E+03 -3.53059E+04  2.95239E+04 -1.28651E+04  2.74664E+04  1.10107E+04  3.13856E+03  1.81162E+04
 -1.28182E+04  7.59097E+03 -1.01324E+04 -7.53789E+03  5.90481E+03 -1.02117E+04  1.74838E+04  6.17694E+03
  1.29590E+04  2.18242E+04 -6.39297E+03  2.38024E+04 -2.15922E+04  1.03059E+04 -2.59415E+04 -5.68727E+03
 -1.69521E+04 -1.68502E+04 -5.93589E+03 -1.69693E+04  3.69490E+03 -1.62838E+04  1.33821E+04 -1.62824E+04
  2.27346E+04 -1.24228E+04  2.93231E+04  1.15696E+03  2.17734E+04  1.72345E+04  3.89003E+03  3.36721E+04
 -1.62426E+04  2.79542E+04 -2.70143E+04  9.69677E+03 -2.02365E+04 -1.05417E+04 -3.85625E+03 -1.36096E+04
  2.33364E+03 -4.00471E+03 -3.50660E+03  5.15512E+03 -1.38494E+04  4.85814E+03 -1.38652E+04 -5.43154E+03
 -9.07377E+03 -1.58159E+04  4.20619E+03 -2.03819E+04  1.31244E+04 -1.44379E+04  1.53384E+04 -1.14309E+03
  9.91209E+03  1.17450E+04 -8.41344E+02  1.58641E+04 -1.09022E+04  9.02572E+03 -1.64852E+04 -3.47589E+03
 -1.24553E+04 -1.54675E+04 -1.17858E+03 -2.00665E+04  9.17827E+03 -1.59773E+04  1.68872E+04 -6.98026E+03
  1.54171E+04  8.87594E+02  1.07074E+04  3.94041E+03  5.86614E+03  7.50972E+02  8.51583E+03 -1.33170E+03
  1.54786E+04  2.58939E+03  1.62057E+04  1.33015E+04  9.94065E+03  2.63812E+04 -3.15466E+03  2.83534E+04
 -1.65053E+04  2.22977E+04 -2.59772E+04  1.09838E+04 -2.74150E+04 -2.33703E+03 -2.30887E+04 -1.54647E+04
 -1.04962E+04 -2.21665E+04  7.49132E+03 -1.97793E+04  1.79466E+04 -1.14488E+04  1.61411E+04  4.20093E+03
  7.14911E+03  1.23920E+04 -7.79007E+03  1.10426E+04 -1.38269E+04  2.41088E+03 -1.06753E+04 -8.91742E+03
 -9.61074E+01 -1.27644E+04  6.93075E+03 -1.03145E+04  8.30179E+03 -1.60462E+03  1.47877E+03  5.04979E+03
 -6.08218E+03  2.08986E+03 -4.09719E+03 -5.14975E+03  6.70741E+02 -1.10112E+04  7.93851E+03 -1.10249E+04
  1.36268E+04 -5.37336E+03  1.38077E+04  3.53690E+03  1.18293E+04  1.08262E+04  5.58771E+03  1.59510E+04
 -2.25557E+03  1.78421E+04 -1.07283E+04  1.11210E+04 -1.24851E+04  2.79177E+03 -8.78210E+03 -1.93878E+03
 -4.86983E+03 -3.77319E+03 -1.36847E+03  1.30317E+03 -2.45340E+03  1.85932E+03 -3.50156E+03  3.94290E+03
 -8.03329E+03 -8.98928E+01 -9.65998E+03 -7.46967E+03 -4.19264E+03 -1.25731E+04  3.73293E+03 -8.59159E+03
  7.74979E+03 -3.78352E+03  5.64848E+03  1.99466E+03  1.20024E+03  3.05418E+03 -3.82721E+03 -2.15377E+02
 -4.01058E+03 -5.69103E+03 -9.18393E+02 -7.99110E+03  4.48363E+03 -8.76010E+03  1.08973E+04 -4.54253E+03
  1.28327E+04  8.29267E+02  9.62629E+03  7.42495E+03  1.73478E+03  1.00303E+04 -6.13143E+03  9.29872E+03
 -7.43360E+03  2.96630E+03 -3.82207E+03 -1.20368E+03  1.01601E+03 -1.94339E+03  4.32831E+03 -5.85951E+02
  4.54724E+03  3.95049E+03  1.23237E+03  7.21247E+03 -5.37305E+03  7.09741E+03 -8.75047E+03  1.19463E+03
 -5.47565E+03 -4.08566E+03 -1.28966E+01 -6.55664E+03  3.91479E+03 -4.06927E+03  3.89020E+03  1.14841E+03
  7.81845E+02  3.28868E+03 -4.45884E+03  4.78691E+03 -6.11229E+03  2.55281E+03 -5.71589E+03 -1.74388E+03
 -3.31334E+03 -6.32343E+03  1.71850E+03 -8.43613E+03  6.99748E+03 -5.33188E+03  7.32240E+03  4.62457E+02
  5.00158E+03  5.81333E+03  7.07437E+00  8.00146E+03 -5.85904E+03  4.82498E+03 -5.81367E+03 -2.96613E+02
 -6.26691E+03 -5.85275E+03 -1.82222E+03 -5.26807E+03  2.94676E+03 -4.32827E+03  3.35290E+03 -2.77133E+03
  2.63758E+03  3.91897E+02  3.36671E+02  1.49510E+03  5.71580E+01 -6.40951E+02  2.76318E+02 -2.80097E+03
  4.51369E+03 -1.40215E+03  6.55398E+03  8.82190E+02  6.77573E+03  4.23264E+03  5.69826E+03  8.57322E+03
 -1.47513E+03  9.98673E+03 -8.85705E+03  7.54805E+03 -1.20029E+04  1.13369E+03 -9.77885E+03 -2.94718E+03
 -4.75626E+03 -7.48712E+03 -1.87908E+02 -6.50144E+03  1.79614E+03 -2.97836E+03  2.01128E+03 -2.77983E+03
  1.41858E+03 -1.38373E+03  2.20972E+03 -2.72203E+03  3.78440E+03 -1.59756E+03  4.15236E+03  5.22407E+02
  4.63360E+03  5.68904E+02  1.36854E+03  3.59508E+03 -1.48128E+03  3.38103E+03 -5.20508E+03  3.56706E+03
 -5.08165E+03 -1.50514E+03 -2.87254E+03 -3.72088E+03  6.12487E+02 -5.98673E+03  4.13894E+03 -6.30282E+03
  5.97738E+03 -3.97720E+03  7.91176E+03  8.40033E+02  5.47614E+03  4.88858E+03  1.14892E+03  6.74765E+03
 -2.64386E+03  6.46729E+03 -4.04398E+03  2.13928E+03 -1.98825E+03 -7.51387E+02 -9.85154E+02 -9.36689E+02
 -7.65951E+02  1.02130E+02 -1.84889E+03  2.14388E+03 -2.97353E+03  1.21631E+03 -4.51646E+03 -5.96614E+02
 -1.86741E+03 -4.59010E+03  5.62068E+02 -5.41517E+03  3.00332E+03 -5.49125E+03  4.18595E+03 -1.28598E+03
  5.14670E+03  3.02598E+03  2.18394E+03  4.41227E+03 -9.92781E+02  5.68010E+03 -3.30896E+03  3.20975E+03
 -4.85221E+03  5.64908E+02 -4.34799E+03 -2.96073E+03 -5.50282E+02 -4.10508E+03  1.83115E+03 -3.44742E+03
  2.96764E+03 -1.44393E+03  2.19989E+03  8.24601E+02  1.11135E+03  1.74845E+03  8.24824E+02  4.65552E+02
  1.61676E+03  1.53493E+02  1.57124E+03  8.07198E+02  1.18444E+03  2.52797E+03  1.61097E+03  1.87627E+03
 -1.67161E+03  3.84356E+03 -3.44344E+03  4.55758E+03 -3.78840E+03  1.85391E+03 -5.00856E+03 -1.09958E+03
 -1.72356E+03 -4.41712E+03  5.81694E+02 -5.52615E+03  2.40416E+03 -3.84016E+03  3.70702E+03 -1.28957E+03
  2.49052E+03  2.37032E+03  1.34608E+03  2.37518E+03 -7.70223E+02  1.64588E+03 -1.43071E+03 -2.39274E+02
 -7.68504E+02 -1.89839E+03  1.41593E+03 -2.28530E+03  1.71459E+03 -1.40071E+03  1.80556E+03  2.75671E+02
  9.14566E+02  2.61064E+02  5.81789E+02 -1.74293E+02 -2.88707E+02  1.23147E+03  1.19776E+03  2.89086E+02
  1.11478E+02 -4.20488E+02  1.95849E+03  8.89408E+02  8.66473E+02  2.83150E+03 -6.77567E+01  2.86501E+03
 -2.19653E+03  1.71462E+03 -3.36215E+03  6.24723E+02 -3.26812E+03 -1.38430E+03 -1.21497E+01 -1.99250E+03
  8.45893E+02 -1.36924E+03  1.39055E+03 -1.02855E+03  1.34293E+03  1.40139E+03 -1.12070E+03  1.12080E+03
 -2.08321E+03  1.40678E+03 -1.32880E+03 -1.84212E+03 -1.02681E+03 -2.50915E+03  6.93231E+02 -2.01838E+03
  1.12572E+03 -1.70120E+03  1.57871E+03  5.02308E+01  8.15886E+02  7.10957E+02  9.74877E+02  1.37269E+03
 -4.77685E+02 -1.60267E+02 -1.32536E+03 -2.04337E+02  1.46454E+02 -1.09144E+03  1.34983E+03 -1.59910E+03
  2.60258E+03 -5.09773E+01  3.51573E+03  8.57025E+02  9.52510E+02  1.97736E+03 -6.51853E+02  1.78376E+03
 -2.10225E+03  3.36858E+02 -1.92954E+03  1.87320E+02 -1.52603E+03 -1.95893E+03  3.74729E+02 -1.31734E+03
  1.50042E+03 -5.82876E+02  1.19426E+03  1.20926E+03  4.90725E+02  1.33987E+03 -9.98599E+01  1.30371E+03
 -6.70849E+02  8.24605E+02 -1.68739E+02  1.97468E+02 -7.79240E+01  2.55394E+02 -8.88588E+02  7.78498E+02
 -8.84286E+02  9.12261E+02 -2.18802E+03  5.07235E+02 -2.38809E+03 -1.56625E+02 -3.65297E+03 -1.31749E+03
 -1.46961E+03 -2.79162E+03  6.14490E+02 -3.67392E+03  1.68795E+03 -3.00585E+03  3.17481E+03 -1.67856E+03
  3.55176E+03  1.54310E+02  1.54757E+03  1.88681E+03 -6.33280E+02  2.45402E+03 -1.17709E+03  1.06468E+03
 -1.71099E+03  6.75610E+02 -7.81468E+02 -1.79314E+02 -2.26544E+02 -2.25888E+02 -2.72546E+02  4.63593E+02
 -8.51768E+02 -1.74260E+01 -9.29101E+02 -2.44300E+02  2.21911E+02 -7.34331E+02 -3.52840E+02 -6.26024E+02
  1.55600E+03 -8.86273E+02  1.26067E+03  3.52459E+02  1.33682E+03  1.37615E+03 -1.21893E+02  2.03665E+03
 -1.91467E+03  2.43900E+03 -2.40897E+03  2.01737E+03 -2.29043E+03 -7.30170E+00 -1.35272E+03 -1.01915E+03
 -1.40819E+03 -1.90546E+03  4.25392E+02 -2.08655E+03  6.23307E+02 -8.99445E+02  1.17811E+03 -3.98161E+02
  9.36634E+02  4.92770E+02 -4.53147E+02 -2.33613E+02 -1.08599E+02 -8.56306E+01 -2.63466E+02 -6.99725E+02
  5.37184E+02  6.69267E+02  8.95174E+02  4.28062E+02 -2.50675E+02  1.28881E+03  2.14377E+02  4.94483E+02
 -1.00544E+03  6.09635E+01 -9.78191E+02 -7.01886E+00 -1.40264E+03 -1.37409E+03 -1.06113E+02 -1.93744E+03
  7.98501E+02 -8.62932E+02  1.08216E+03  1.45578E+02  1.21975E+03 -2.20850E+02  4.70617E+02  9.54563E+02
  4.09053E+02  9.40144E+02 -5.26665E+02  8.46076E+02 -1.10183E+03  6.59546E+02 -3.56654E+02  1.88790E+02
 -5.39188E+01 -3.22526E+02 -7.24480E+02  1.49993E+02 -4.93421E+02  2.20304E+02 -1.19156E+03 -5.02064E+02
 -1.20273E+03  2.39828E+01 -3.06482E+02 -1.44444E+03  1.19147E+03 -2.40441E+03  8.27072E+02 -6.32693E+02
  4.85499E+02 -3.76970E+02  2.34695E+02  6.73159E+02  4.04992E+02  1.29707E+03 -6.96585E+02  6.42032E+02
