 $NMID ID='MM_0lb_SNR400_18hz_g60_34.RAW', FMTDAT='(8E13.5)'
 TRAMP=1., VOLUME=1. $END
  3.09549E+05  1.25884E+02  3.37135E+05  2.50627E+05  8.45143E+04  3.37043E+05 -1.32424E+05  2.50941E+05
 -1.90452E+05  8.22555E+04 -1.11422E+05 -3.26564E+04  1.03880E+03 -5.03538E+04  5.37811E+04  4.59188E+02
  3.54932E+04  5.31338E+04 -1.67828E+04  7.52799E+04 -6.07597E+04  6.21487E+04 -8.44912E+04  3.22586E+04
 -8.12590E+04 -1.14446E+04 -5.70951E+04 -5.10357E+04 -1.51732E+04 -6.93124E+04  2.71623E+04 -4.49282E+04
  3.98463E+04  4.07591E+03  1.60175E+04  4.73904E+04 -3.42065E+04  4.71081E+04 -6.64344E+04 -4.71156E+02
 -5.32010E+04 -5.62273E+04 -6.57933E+03 -7.64956E+04  3.36567E+04 -5.46160E+04  4.75584E+04 -1.67764E+04
  4.32934E+04  1.14054E+04  3.17343E+04  2.57898E+04  1.59971E+04  2.88958E+04 -5.32716E+03  2.73668E+04
 -2.19087E+04  1.25194E+04 -1.88852E+04 -4.76106E+03  5.70919E+03 -7.54341E+03  2.20862E+04  1.16403E+04
  7.12259E+03  3.47731E+04 -3.13238E+04  3.50763E+04 -6.29166E+04  2.15148E+03 -5.64541E+04 -4.21171E+04
 -1.26146E+04 -6.28805E+04  3.89881E+04 -4.49432E+04  5.77024E+04 -1.95496E+03  3.31923E+04  3.21213E+04
 -6.41299E+03  3.50917E+04 -2.95714E+04  1.50865E+04 -2.90994E+04 -4.45555E+03 -1.62975E+04 -1.08804E+04
 -8.20054E+03 -1.28125E+04 -7.95134E+02 -1.72130E+04  6.97907E+03 -2.27065E+04  1.57306E+04 -1.38869E+04
  1.14908E+04  5.43275E+03 -7.78999E+03  1.27556E+04 -2.07026E+04 -3.21692E+03 -8.62920E+03 -3.24666E+04
  2.17234E+04 -4.21186E+04  4.70917E+04 -1.95683E+04  4.40732E+04  1.86541E+04  1.52509E+04  4.32416E+04
 -1.59878E+04  3.21619E+04 -2.45692E+04  1.51799E+03 -9.71076E+03 -2.73620E+04  2.11732E+04 -3.33477E+04
  3.93826E+04 -8.40523E+03  3.44576E+04  2.35453E+04  1.67296E+04  4.53581E+04 -7.88905E+03  4.79418E+04
 -3.04709E+04  3.20091E+04 -4.03197E+04  8.46163E+03 -4.09076E+04 -1.66989E+04 -2.24637E+04 -3.62693E+04
  6.34210E+03 -3.62036E+04  3.05844E+04 -1.40643E+04  2.83222E+04  1.04771E+04  2.96391E+03  1.83467E+04
 -1.31741E+04  7.76278E+03 -9.88991E+03 -7.04528E+03  5.11941E+03 -1.07619E+04  1.76138E+04  6.00352E+03
  1.33975E+04  2.20371E+04 -6.40905E+03  2.39278E+04 -2.22165E+04  1.04001E+04 -2.65641E+04 -5.86323E+03
 -1.86872E+04 -1.68022E+04 -6.97349E+03 -1.90396E+04  3.50195E+03 -1.73981E+04  1.44486E+04 -1.59102E+04
  2.39537E+04 -1.20996E+04  3.09536E+04  1.44428E+03  2.22173E+04  1.80460E+04  3.52881E+03  3.38735E+04
 -1.72017E+04  2.91775E+04 -2.71576E+04  9.61093E+03 -2.03414E+04 -1.04840E+04 -4.20689E+03 -1.35427E+04
  2.12646E+03 -3.82649E+03 -4.07061E+03  6.45380E+03 -1.51270E+04  5.04752E+03 -1.45890E+04 -5.86075E+03
 -1.00500E+04 -1.74871E+04  4.29198E+03 -2.16755E+04  1.38170E+04 -1.61077E+04  1.59559E+04 -1.99870E+03
  9.72844E+03  1.19413E+04 -7.27585E+02  1.78949E+04 -1.16569E+04  1.02128E+04 -1.72264E+04 -3.72192E+03
 -1.27963E+04 -1.58537E+04 -1.29062E+03 -2.03013E+04  9.32316E+03 -1.65215E+04  1.77308E+04 -8.61271E+03
  1.61410E+04  1.98219E+02  1.21059E+04  4.40184E+03  5.94082E+03  3.82433E+02  8.58578E+03 -1.91903E+03
  1.54062E+04  3.09501E+03  1.69840E+04  1.38983E+04  1.07379E+04  2.73197E+04 -2.88378E+03  3.01716E+04
 -1.69134E+04  2.37306E+04 -2.78848E+04  1.13556E+04 -2.84138E+04 -1.93454E+03 -2.39179E+04 -1.67593E+04
 -1.07143E+04 -2.40503E+04  7.84450E+03 -2.14770E+04  1.87608E+04 -1.17530E+04  1.72510E+04  4.61069E+03
  6.19445E+03  1.26049E+04 -7.77644E+03  1.15785E+04 -1.38500E+04  3.01226E+03 -1.12706E+04 -8.67632E+03
  4.03196E+02 -1.38408E+04  7.21373E+03 -1.03341E+04  9.25099E+03 -1.59791E+03  1.63001E+03  5.21251E+03
 -5.89483E+03  1.63408E+03 -3.91253E+03 -4.37954E+03 -6.02079E+02 -1.18405E+04  8.54972E+03 -1.11453E+04
  1.40773E+04 -5.61172E+03  1.42540E+04  2.90215E+03  1.20580E+04  1.10871E+04  5.62010E+03  1.63163E+04
 -2.81414E+03  1.84665E+04 -1.11918E+04  1.20355E+04 -1.25625E+04  2.73831E+03 -9.31290E+03 -2.73744E+03
 -4.58334E+03 -3.98787E+03 -3.02931E+02  1.35053E+03 -2.29027E+03  2.06593E+03 -4.18358E+03  3.91015E+03
 -9.03425E+03 -1.25862E+03 -9.87390E+03 -8.07153E+03 -4.23521E+03 -1.25451E+04  3.98613E+03 -9.75093E+03
  8.19933E+03 -4.41642E+03  5.54351E+03  2.65604E+03  3.50675E+02  3.52390E+03 -4.83866E+03 -3.63101E+02
 -4.01955E+03 -5.57384E+03 -6.02807E+02 -7.98659E+03  4.57513E+03 -9.41795E+03  1.14353E+04 -5.08301E+03
  1.31371E+04  9.03048E+02  9.53749E+03  6.99527E+03  2.68016E+03  1.04402E+04 -6.05373E+03  9.14748E+03
 -7.39068E+03  2.56889E+03 -4.01579E+03 -1.66693E+03  1.36774E+03 -1.82939E+03  4.86442E+03 -7.58666E+02
  4.12032E+03  3.84237E+03  1.09849E+03  7.34664E+03 -5.44121E+03  7.07551E+03 -9.13758E+03  2.16713E+03
 -5.96750E+03 -3.94087E+03  2.37941E+02 -7.41021E+03  4.12997E+03 -4.04263E+03  4.47479E+03  9.13880E+02
  1.23284E+03  4.56239E+03 -4.27733E+03  5.43563E+03 -5.69355E+03  2.85305E+03 -5.53553E+03 -1.22404E+03
 -3.46778E+03 -7.05541E+03  1.63428E+03 -8.23290E+03  6.87019E+03 -5.72771E+03  7.52355E+03  1.27256E+03
  4.93867E+03  6.37878E+03 -2.12800E+02  7.58388E+03 -5.45801E+03  4.93961E+03 -5.96181E+03 -6.42399E+02
 -5.87122E+03 -5.59030E+03 -1.48760E+03 -5.67500E+03  3.12335E+03 -5.42161E+03  3.47608E+03 -3.07415E+03
  3.12589E+03  4.51714E+02  2.32960E+02  1.69231E+03  6.40233E+02 -5.29530E+02  1.54314E+02 -2.43293E+03
  4.44301E+03 -9.94603E+02  6.09452E+03  3.52584E+02  6.49863E+03  3.82952E+03  6.12847E+03  8.08838E+03
 -1.75659E+03  1.02065E+04 -9.10819E+03  7.36417E+03 -1.10207E+04  4.73498E+02 -8.63517E+03 -3.20675E+03
 -4.38601E+03 -7.70519E+03 -1.03839E+03 -6.34493E+03  2.30561E+03 -2.76223E+03  2.21880E+03 -2.62594E+03
  1.44543E+03 -1.79263E+03  1.92535E+03 -2.07752E+03  3.94162E+03 -2.07670E+03  4.14497E+03  4.32142E+01
  4.39317E+03  9.23741E+02  1.72675E+03  4.07270E+03 -1.47094E+03  2.88633E+03 -5.12611E+03  2.94097E+03
 -5.86204E+03 -1.27468E+03 -2.38651E+03 -3.58145E+03  3.17162E+02 -5.38387E+03  3.50320E+03 -6.38263E+03
  5.97576E+03 -3.40724E+03  7.40579E+03 -1.07679E+02  5.79920E+03  4.95833E+03  1.26699E+03  6.90572E+03
 -2.67664E+03  6.18506E+03 -3.94136E+03  2.25678E+03 -2.34772E+03 -8.48563E+02 -7.30614E+02 -2.57723E+02
 -3.71669E+02  5.05113E+02 -1.11589E+03  1.95507E+03 -3.07514E+03  1.68017E+03 -4.08669E+03  6.76365E+02
 -1.91270E+03 -4.32604E+03  1.01750E+03 -5.27500E+03  3.21356E+03 -4.73950E+03  4.04151E+03 -1.74219E+03
  4.60792E+03  2.72871E+03  2.29990E+03  3.66830E+03 -8.02301E+02  4.63452E+03 -2.86038E+03  3.08693E+03
 -3.92867E+03  6.15542E+02 -3.85722E+03 -2.34404E+03 -3.21910E+02 -3.14675E+03  1.87510E+03 -2.58929E+03
  3.02308E+03 -1.52258E+03  2.30273E+03  3.31324E+02  7.84704E+02  1.84130E+03  8.91152E+02  1.73094E+02
  2.23949E+03  5.67763E+02  1.23194E+03  7.97167E+02  1.71576E+03  2.72934E+03  8.02132E+02  2.13615E+03
 -9.87791E+02  2.71424E+03 -2.59842E+03  4.41896E+03 -4.03435E+03  1.30753E+03 -4.54351E+03 -1.12235E+03
 -1.40032E+03 -4.03580E+03  8.70297E+02 -5.13388E+03  2.64685E+03 -2.92036E+03  3.60560E+03 -1.60959E+03
  3.01750E+03  1.59279E+03  4.01543E+02  2.29552E+03 -1.01659E+03  1.45860E+03 -1.51828E+03 -2.74474E+02
 -9.38661E+02 -1.35140E+03  1.35174E+03 -1.68036E+03  1.76084E+03 -5.51727E+02  1.54117E+03  3.42672E+02
  8.70435E+02  1.08158E+03  1.25630E+03 -2.18065E+02 -2.20308E+02  6.03918E+02  7.91691E+02 -1.01489E+02
  1.13342E+02  2.88807E+02  2.05208E+03  6.21393E+02  3.08868E+02  2.16346E+03  3.67007E+01  3.07544E+03
 -2.01605E+03  1.05917E+03 -1.85339E+03  3.45408E+02 -2.47672E+03 -7.80632E+02 -3.27743E+02 -6.15151E+02
  3.58664E+02 -1.66630E+03  7.09342E+02 -8.55800E+02  1.19538E+02  1.04241E+03 -4.43868E+02  1.39599E+03
 -9.00772E+02  5.66856E+02 -1.18594E+03 -1.42599E+03 -9.46571E+02 -2.48611E+03  9.60008E+02 -2.27648E+03
  2.08009E+02 -9.82079E+02  4.85752E+02 -4.39631E+00  1.35823E+03 -6.49804E+02  2.98802E+02  1.29967E+03
 -2.29888E+02 -2.12625E+02 -1.66652E+03 -1.68967E+02  5.66867E+02 -1.61570E+03  1.90364E+03 -1.25349E+03
  1.19123E+03 -1.24556E+00  3.16697E+03  1.06481E+03  1.01660E+03  1.73113E+03 -7.29497E+02  2.02769E+03
 -1.59945E+03  4.08096E+02 -1.63698E+03 -4.21992E+02 -1.08446E+03 -1.83196E+03  5.42536E+02 -1.03031E+03
  1.98512E+03 -7.22507E+02  6.21768E+02  8.64168E+02 -1.79558E+02  1.56377E+03  3.11153E+02  1.12316E+03
 -7.52430E+00  1.39603E+03 -5.67175E+02  3.74670E+02 -2.05975E+02  2.28754E+02 -1.14845E+03  4.14277E+02
 -7.83391E+02  5.01436E+02 -1.45012E+03  2.75420E+02 -1.87637E+03 -9.88551E+01 -2.68029E+03 -1.52195E+03
 -1.45751E+03 -2.79735E+03  6.04844E+02 -3.50969E+03  1.47911E+03 -2.74584E+03  2.96916E+03 -9.63238E+02
  2.80563E+03 -1.66472E+02  1.37033E+03  1.66736E+03 -7.80043E+01  1.79681E+03 -4.76885E+02  1.17420E+03
 -7.44520E+02  1.28400E+02 -5.21242E+02  1.14588E+02 -9.48638E+02 -2.32754E+02 -8.57892E+02 -6.36164E+02
 -7.99425E+02 -1.49136E+02 -8.62277E+02 -2.17059E+02  1.55882E+02 -9.95157E+02 -4.95404E+02 -9.83447E+02
  1.49173E+03 -9.78992E+02  5.90140E+02  1.81363E+02  1.49967E+03  1.08770E+03 -3.04812E+02  1.68646E+03
 -9.46105E+02  2.33827E+03 -1.90781E+03  1.13692E+03 -1.70873E+03 -3.82502E+01 -1.68561E+03 -1.41395E+03
 -9.05232E+02 -1.07533E+03  7.89673E+02 -1.34982E+03  1.01392E+03 -1.89104E+01  7.73202E+02  5.65909E+02
  1.02522E+03  6.32651E+02  2.58561E+02  8.56582E+02 -3.77255E+02  7.99601E+01 -5.83130E+01 -2.69492E+02
 -9.69858E+01  2.31076E+02  2.70928E+02  3.93437E+02  2.08883E+02  3.26178E+02  2.39773E+01  7.07610E+02
 -5.87814E+02  1.11759E+03 -8.58225E+02  6.65614E+02 -2.29106E+02 -5.58746E+02  1.03065E+02 -1.04916E+03
  9.86426E+02 -2.90992E+02  1.43296E+02 -2.95980E+02  1.07424E+03 -1.01516E+03  5.42708E+02  1.70899E+02
  6.70352E+02  5.43521E+02  3.25596E+02  2.20813E+02  1.11240E+00  6.34113E+02 -7.26130E+02  2.97534E+02
  2.12390E+02  1.10467E+02 -5.14729E+02  4.36618E+00 -1.20175E+03 -4.01532E+02 -3.04480E+02 -6.08356E+02
 -1.38921E+03  1.58443E+02 -1.64891E+02 -4.13796E+02  1.37505E+03 -1.96224E+03  9.07049E+02  9.98344E+01
  1.53714E+02 -2.82258E+01 -7.68917E+02  2.87733E+02 -4.32404E+02  6.54346E+02 -3.07461E+02  2.94875E+02
