 $NMID ID='MM_0lb_SNR400_14hz_g50_51.RAW', FMTDAT='(8E13.5)'
 TRAMP=1., VOLUME=1. $END
  3.09639E+05  1.28707E+02  3.37803E+05  2.50294E+05  8.43641E+04  3.37826E+05 -1.32384E+05  2.50443E+05
 -1.90419E+05  8.28115E+04 -1.11400E+05 -3.29038E+04  3.57155E+02 -5.05319E+04  5.34794E+04 -5.92454E+02
  3.51882E+04  5.29556E+04 -1.67897E+04  7.52588E+04 -6.05170E+04  6.38220E+04 -8.38967E+04  3.22213E+04
 -8.14369E+04 -1.13415E+04 -5.66221E+04 -5.11666E+04 -1.55669E+04 -6.93318E+04  2.71388E+04 -4.53068E+04
  4.01490E+04  3.92302E+03  1.59221E+04  4.72554E+04 -3.47380E+04  4.68445E+04 -6.66358E+04 -5.29900E+02
 -5.30395E+04 -5.67995E+04 -6.50041E+03 -7.72449E+04  3.45172E+04 -5.47934E+04  4.81288E+04 -1.74208E+04
  4.33592E+04  1.14614E+04  3.18074E+04  2.55724E+04  1.58256E+04  2.94603E+04 -4.83438E+03  2.79687E+04
 -2.21101E+04  1.20040E+04 -1.81588E+04 -5.57977E+03  5.42108E+03 -7.37210E+03  2.24724E+04  1.21089E+04
  6.93861E+03  3.57212E+04 -3.20859E+04  3.57884E+04 -6.30731E+04  2.60101E+03 -5.63767E+04 -4.30045E+04
 -1.23129E+04 -6.39914E+04  3.98075E+04 -4.50271E+04  5.87450E+04 -2.11683E+03  3.41632E+04  3.19900E+04
 -6.24154E+03  3.65142E+04 -2.99254E+04  1.58105E+04 -3.03560E+04 -4.51195E+03 -1.71007E+04 -1.06029E+04
 -8.30990E+03 -1.28287E+04 -1.16026E+03 -1.81590E+04  7.99909E+03 -2.24994E+04  1.55701E+04 -1.32893E+04
  1.17651E+04  5.69312E+03 -9.16645E+03  1.25022E+04 -2.15640E+04 -4.84721E+03 -8.06139E+03 -3.38569E+04
  2.29089E+04 -4.38440E+04  4.88326E+04 -1.96951E+04  4.48940E+04  1.93791E+04  1.62475E+04  4.40966E+04
 -1.57474E+04  3.38029E+04 -2.59925E+04  1.92918E+03 -1.03252E+04 -2.79299E+04  2.15031E+04 -3.35540E+04
  4.08054E+04 -9.53169E+03  3.61986E+04  2.37725E+04  1.80585E+04  4.68020E+04 -8.05393E+03  5.03922E+04
 -3.17197E+04  3.38969E+04 -4.21173E+04  9.47477E+03 -4.18678E+04 -1.70114E+04 -2.36009E+04 -3.78840E+04
  7.21199E+03 -3.81793E+04  3.18654E+04 -1.48203E+04  2.89336E+04  1.13626E+04  4.04311E+03  1.84961E+04
 -1.37220E+04  7.81302E+03 -1.11941E+04 -7.51694E+03  5.80465E+03 -1.01823E+04  1.82136E+04  6.27390E+03
  1.37454E+04  2.19178E+04 -5.88975E+03  2.49087E+04 -2.19971E+04  1.12847E+04 -2.82832E+04 -5.21693E+03
 -2.02054E+04 -1.80015E+04 -8.39718E+03 -1.95892E+04  4.40129E+03 -1.97803E+04  1.64046E+04 -1.81425E+04
  2.63221E+04 -1.27273E+04  3.29308E+04  2.82890E+03  2.37456E+04  2.00541E+04  4.07081E+03  3.62551E+04
 -1.81252E+04  3.04310E+04 -2.75345E+04  1.01047E+04 -2.08398E+04 -1.03517E+04 -4.71635E+03 -1.40642E+04
  1.67940E+03 -2.77245E+03 -5.19037E+03  6.78666E+03 -1.60135E+04  4.56767E+03 -1.58086E+04 -6.45545E+03
 -9.62522E+03 -1.91749E+04  5.54984E+03 -2.30101E+04  1.47934E+04 -1.64959E+04  1.85296E+04 -1.50937E+03
  1.06713E+04  1.31803E+04 -1.10281E+03  1.94644E+04 -1.33409E+04  1.12116E+04 -1.97921E+04 -3.80549E+03
 -1.46566E+04 -1.66903E+04 -1.54989E+03 -2.28324E+04  9.34206E+03 -1.89985E+04  1.90423E+04 -1.01853E+04
  1.73630E+04 -1.42326E+02  1.31330E+04  4.67788E+03  6.53157E+03  7.26965E+02  9.85278E+03 -1.68598E+03
  1.72408E+04  2.54367E+03  2.00305E+04  1.53984E+04  1.21709E+04  3.00513E+04 -2.44085E+03  3.44227E+04
 -1.97878E+04  2.73136E+04 -3.25741E+04  1.33728E+04 -3.42147E+04 -2.68492E+03 -2.78250E+04 -1.94375E+04
 -1.23763E+04 -2.81362E+04  1.00265E+04 -2.49948E+04  2.18897E+04 -1.26309E+04  1.91843E+04  5.45048E+03
  7.60196E+03  1.42415E+04 -8.97901E+03  1.30075E+04 -1.62217E+04  2.11755E+03 -1.18905E+04 -1.00086E+04
 -5.81964E+02 -1.59728E+04  8.12917E+03 -1.16970E+04  1.01454E+04 -8.70831E+02  2.10490E+03  6.61603E+03
 -6.79843E+03  1.99870E+03 -6.26781E+03 -5.76507E+03 -8.18126E+02 -1.37475E+04  9.59721E+03 -1.45395E+04
  1.67722E+04 -7.70270E+03  1.82367E+04  2.65623E+03  1.55347E+04  1.40517E+04  7.80609E+03  2.03242E+04
 -3.47812E+03  2.23778E+04 -1.37368E+04  1.42000E+04 -1.54476E+04  3.69099E+03 -1.13518E+04 -4.22660E+03
 -6.05073E+03 -5.62383E+03 -8.67946E+02  7.03968E+02 -2.64619E+03  2.95327E+03 -4.85504E+03  4.12667E+03
 -1.11426E+04 -3.64135E+02 -1.11476E+04 -9.06944E+03 -4.83035E+03 -1.49546E+04  4.54392E+03 -1.15801E+04
  1.00809E+04 -5.05972E+03  6.84602E+03  2.69394E+03  1.98940E+02  4.27553E+03 -4.87978E+03 -1.00978E+02
 -5.63366E+03 -7.15892E+03 -9.56107E+02 -1.06521E+04  6.20574E+03 -1.13232E+04  1.40664E+04 -5.36947E+03
  1.61311E+04  1.51047E+03  1.21388E+04  9.79484E+03  2.47010E+03  1.32668E+04 -7.34550E+03  1.07393E+04
 -8.75574E+03  3.59580E+03 -4.79572E+03 -2.06286E+03  1.81879E+03 -3.01733E+03  6.25836E+03 -1.04925E+03
  5.44894E+03  4.88519E+03  8.84493E+02  8.66132E+03 -6.61911E+03  9.25302E+03 -1.13699E+04  1.96521E+03
 -7.20723E+03 -5.92239E+03  2.92807E+02 -9.21418E+03  5.26089E+03 -4.60571E+03  5.05567E+03  1.70804E+03
  9.14086E+02  6.16569E+03 -5.61970E+03  7.02825E+03 -8.18984E+03  2.46861E+03 -8.45667E+03 -2.38010E+03
 -4.90361E+03 -1.02139E+04  1.68502E+03 -1.14028E+04  9.70676E+03 -7.26542E+03  1.03488E+04  1.93382E+03
  7.04300E+03  8.35202E+03 -1.59425E+03  9.88679E+03 -7.12802E+03  5.93341E+03 -8.07353E+03 -1.09661E+03
 -7.40321E+03 -7.82339E+03 -1.47943E+03 -7.32227E+03  3.88868E+03 -7.25470E+03  4.86206E+03 -3.65012E+03
  3.67567E+03  1.26773E+03 -1.02322E+02  1.35377E+03 -2.23370E+02 -1.14905E+03  1.40412E+03 -4.66320E+03
  6.44737E+03 -2.89001E+03  9.93281E+03  1.00329E+03  9.84379E+03  6.21492E+03  6.97699E+03  1.23085E+04
 -2.56470E+03  1.46985E+04 -1.24141E+04  1.09761E+04 -1.65557E+04  2.38036E+03 -1.32367E+04 -5.30462E+03
 -6.02866E+03 -1.10243E+04 -1.23557E+02 -8.78633E+03  3.33761E+03 -4.58211E+03  2.87134E+03 -3.60854E+03
  2.58902E+03 -2.25239E+03  3.06212E+03 -2.97071E+03  4.35384E+03 -2.29197E+03  5.38647E+03 -1.17157E+03
  7.75958E+03  1.87502E+03  2.60308E+03  6.02391E+03 -2.37647E+03  5.96427E+03 -6.87259E+03  4.44861E+03
 -8.30343E+03 -1.90291E+03 -4.75763E+03 -5.76485E+03 -7.07489E+02 -9.48491E+03  5.90484E+03 -9.46515E+03
  1.00284E+04 -5.00386E+03  1.08954E+04  8.61625E+02  7.43844E+03  7.57063E+03  1.38484E+03  1.03453E+04
 -4.23623E+03  8.89305E+03 -5.53381E+03  3.21558E+03 -4.03907E+03 -1.27671E+03 -1.47464E+03 -5.61155E+02
 -8.46921E+02  1.30717E+02 -1.32906E+03  2.76515E+03 -4.05714E+03  1.47300E+03 -6.07181E+03 -4.42228E+02
 -3.90597E+03 -6.01549E+03 -1.44950E+02 -7.87096E+03  5.18492E+03 -7.59944E+03  7.98360E+03 -1.55449E+03
  7.79041E+03  4.39129E+03  3.51590E+03  6.87604E+03 -1.50952E+03  7.63290E+03 -6.05866E+03  5.85833E+03
 -7.83041E+03  9.02027E+02 -6.08066E+03 -5.41359E+03 -5.40681E+02 -6.44954E+03  3.19770E+03 -4.46460E+03
  6.05813E+03 -1.71750E+03  4.11110E+03  1.00887E+03  6.54262E+02  3.15148E+03  5.30125E+02  1.25537E+03
  1.67007E+03  8.71568E+02  1.66639E+03  8.85275E+02  2.48295E+03  2.68120E+03  2.76475E+03  4.28684E+03
 -1.91405E+03  5.70142E+03 -6.18256E+03  6.52373E+03 -7.05462E+03  2.39327E+03 -7.84107E+03 -2.16467E+03
 -4.05372E+03 -8.21540E+03  1.06222E+03 -8.75395E+03  4.19627E+03 -4.83776E+03  5.72499E+03 -1.32208E+03
  5.02062E+03  2.56439E+03  1.19414E+03  4.67851E+03 -1.82858E+03  2.72024E+03 -2.90720E+03 -5.27867E+02
 -2.12600E+03 -4.07775E+03  2.34222E+03 -2.99444E+03  2.97173E+03 -1.65932E+03  3.04624E+03  3.48969E+02
  9.53794E+02  6.09127E+02  1.36697E+03  4.14235E+02 -9.87217E+02  1.35765E+03  1.94859E+03 -6.37273E+02
  1.12658E+03 -1.03570E+03  2.85902E+03  1.08344E+03  9.84742E+02  3.10811E+03 -3.15309E+02  5.12613E+03
 -3.53074E+03  2.86376E+03 -4.21488E+03  1.25052E+03 -4.30035E+03 -1.21730E+03 -1.22464E+03 -2.38675E+03
  6.97876E+02 -2.94294E+03  2.14975E+03 -1.74152E+03  1.03243E+03  2.03683E+03 -1.00862E+03  2.29847E+03
 -3.64074E+03  1.23558E+03 -3.12998E+03 -2.30179E+03 -8.85720E+02 -3.85713E+03  8.35705E+02 -3.71065E+03
  1.69178E+03 -1.85535E+03  2.40959E+03 -4.22955E+02  2.92498E+03  3.59529E+02  1.88510E+02  2.05921E+03
 -9.04515E+02  1.68259E+02 -2.05422E+03 -6.90453E+02  9.48910E+02 -3.07998E+03  3.63478E+03 -2.60656E+03
  3.48590E+03  7.42293E+02  4.63757E+03  2.89065E+03  1.03808E+03  4.33766E+03 -9.04768E+02  4.14202E+03
 -3.28414E+03  1.87920E+03 -3.31640E+03 -4.60575E+02 -1.63843E+03 -2.73100E+03  2.77686E+02 -1.52800E+03
  2.65274E+03 -9.06466E+02  2.45730E+03  3.72754E+02  7.78485E+02  2.64867E+03 -4.97394E+02  2.24806E+03
 -5.30051E+02  1.82049E+03 -1.24698E+03  2.61739E+02 -5.11826E+01  8.28202E+02 -6.65198E+02  7.97658E+02
 -1.21137E+03  1.63705E+03 -3.82443E+03  1.28216E+03 -3.86527E+03 -5.38035E+02 -5.23893E+03 -3.19674E+03
 -2.47371E+03 -5.16278E+03  9.61145E+02 -7.06473E+03  3.32058E+03 -5.36123E+03  5.52259E+03 -1.83439E+03
  5.11034E+03  4.31651E+02  2.94084E+03  3.87870E+03 -8.74098E+01  3.02145E+03 -2.15396E+03  3.39332E+03
 -2.70721E+03  6.16612E+02 -1.20262E+03 -5.39439E+02 -5.38898E+02  1.71704E+02 -8.24840E+02 -5.35389E+02
 -1.31031E+03  2.93646E+02 -2.51153E+02  3.64258E+01  2.77515E+02 -8.35709E+02 -3.09122E+02 -1.58536E+03
  1.75929E+03 -1.54812E+03  2.23875E+03  4.89068E+02  3.08290E+03  2.36419E+03 -2.53674E+02  4.78672E+03
 -2.28520E+03  5.56360E+03 -4.18551E+03  2.95257E+03 -4.16913E+03 -2.07393E+02 -3.20122E+03 -2.84586E+03
 -1.67229E+03 -3.85250E+03  8.63031E+02 -3.12402E+03  2.28090E+03 -1.84306E+03  2.60020E+03 -5.70992E+01
  1.06432E+03  1.02935E+03 -2.18253E+01  1.23803E+03 -2.11038E+02 -1.50715E+02  1.36944E+02 -1.34265E+03
  1.63637E+03 -1.41990E+01  1.09587E+03  4.32109E+02  1.00206E+03  1.77270E+03 -7.45601E+01  1.45126E+03
 -1.48333E+03  1.83864E+03 -2.25239E+03 -2.26947E+02 -2.59135E+03 -2.13717E+03  6.55243E+01 -2.71695E+03
  2.11717E+03 -2.41032E+03  2.79278E+03 -7.42249E+02  2.87879E+03  1.61027E+02  1.73893E+03  2.79436E+03
  6.97742E+02  2.17231E+03 -1.10831E+03  2.10643E+03 -1.22797E+03  9.56363E+02 -1.77952E+03  2.20238E+01
 -8.22989E+02  1.48041E+02 -3.96337E+02 -3.98608E+02 -1.13102E+03  4.16412E+02 -2.36276E+03 -8.99376E+02
 -2.60105E+03 -1.37693E+03 -4.84791E+02 -2.64183E+03  1.13884E+03 -2.74222E+03  2.05880E+03 -1.29874E+03
  1.83177E+03 -4.89815E+01  1.17055E+03  1.08394E+03  2.90362E+02  2.29351E+03 -1.32039E+03  1.28034E+03
