 $NMID ID='MM_0lb_SNR400_19hz_g60_32.RAW', FMTDAT='(8E13.5)'
 TRAMP=1., VOLUME=1. $END
  3.10263E+05 -4.56565E+02  3.37319E+05  2.50029E+05  8.46389E+04  3.37385E+05 -1.32971E+05  2.50863E+05
 -1.89795E+05  8.28330E+04 -1.11112E+05 -3.24532E+04  1.05473E+03 -5.01350E+04  5.35223E+04  2.26376E+01
  3.59155E+04  5.24542E+04 -1.68214E+04  7.55814E+04 -6.01892E+04  6.34402E+04 -8.41072E+04  3.18921E+04
 -8.10101E+04 -1.10944E+04 -5.70876E+04 -5.10962E+04 -1.51653E+04 -6.90620E+04  2.67307E+04 -4.52197E+04
  3.94102E+04  3.88458E+03  1.57309E+04  4.74407E+04 -3.41129E+04  4.66322E+04 -6.58183E+04 -4.59979E+02
 -5.28066E+04 -5.63845E+04 -6.84797E+03 -7.59554E+04  3.36909E+04 -5.35190E+04  4.73210E+04 -1.67785E+04
  4.27452E+04  1.09840E+04  3.12734E+04  2.47974E+04  1.55149E+04  2.89553E+04 -4.70803E+03  2.66125E+04
 -2.18541E+04  1.25249E+04 -1.87198E+04 -4.19635E+03  5.25185E+03 -7.36261E+03  2.16312E+04  1.18022E+04
  7.45354E+03  3.41509E+04 -3.11616E+04  3.54379E+04 -6.22561E+04  2.10727E+03 -5.57338E+04 -4.15100E+04
 -1.27088E+04 -6.21552E+04  3.86789E+04 -4.43577E+04  5.71191E+04 -2.25661E+03  3.30783E+04  3.13119E+04
 -5.99705E+03  3.48302E+04 -2.91983E+04  1.44608E+04 -2.89074E+04 -4.81584E+03 -1.55998E+04 -1.07992E+04
 -7.72133E+03 -1.21995E+04 -6.02115E+02 -1.76736E+04  7.54314E+03 -2.27042E+04  1.53062E+04 -1.39898E+04
  1.21516E+04  4.58784E+03 -7.23938E+03  1.27240E+04 -1.93576E+04 -3.35403E+03 -8.22685E+03 -3.18552E+04
  2.15958E+04 -4.18820E+04  4.59926E+04 -1.88952E+04  4.37430E+04  1.85728E+04  1.47241E+04  4.30926E+04
 -1.51107E+04  3.22415E+04 -2.41403E+04  1.44274E+03 -9.39101E+03 -2.74988E+04  2.09025E+04 -3.19733E+04
  3.88585E+04 -8.05668E+03  3.33180E+04  2.29133E+04  1.65180E+04  4.44794E+04 -7.79558E+03  4.74253E+04
 -2.98608E+04  3.17769E+04 -3.93381E+04  8.79244E+03 -3.97422E+04 -1.56665E+04 -2.22797E+04 -3.61372E+04
  6.73943E+03 -3.59627E+04  3.02559E+04 -1.35471E+04  2.76995E+04  1.14460E+04  3.07404E+03  1.84167E+04
 -1.34206E+04  7.94704E+03 -1.00722E+04 -8.44584E+03  5.54249E+03 -9.79070E+03  1.82022E+04  6.47096E+03
  1.23583E+04  2.18095E+04 -6.68099E+03  2.39667E+04 -2.20099E+04  9.75408E+03 -2.64008E+04 -6.19964E+03
 -1.83976E+04 -1.67552E+04 -6.31767E+03 -1.79374E+04  3.43249E+03 -1.68052E+04  1.35505E+04 -1.51642E+04
  2.31905E+04 -1.23263E+04  2.93545E+04  1.94937E+03  2.23284E+04  1.79083E+04  3.74651E+03  3.39507E+04
 -1.68462E+04  2.83425E+04 -2.69204E+04  9.92014E+03 -1.99597E+04 -1.09266E+04 -4.42882E+03 -1.34070E+04
  2.42656E+03 -4.04198E+03 -2.99864E+03  6.00187E+03 -1.37921E+04  5.29150E+03 -1.36986E+04 -5.14610E+03
 -8.53978E+03 -1.66413E+04  4.48571E+03 -2.01795E+04  1.35640E+04 -1.47400E+04  1.64448E+04 -1.27780E+03
  9.58247E+03  1.13132E+04 -1.24935E+03  1.67679E+04 -1.09764E+04  9.88195E+03 -1.64997E+04 -4.02405E+03
 -1.21946E+04 -1.45206E+04 -1.59152E+03 -2.03358E+04  9.04558E+03 -1.58348E+04  1.71548E+04 -7.69582E+03
  1.54171E+04  9.02654E+02  1.18453E+04  3.61101E+03  5.95099E+03  9.37648E+02  8.19763E+03 -1.03493E+03
  1.48008E+04  2.36392E+03  1.61301E+04  1.36175E+04  1.03030E+04  2.61565E+04 -3.67942E+03  2.82180E+04
 -1.63821E+04  2.19371E+04 -2.59233E+04  1.14452E+04 -2.71861E+04 -1.88660E+03 -2.24581E+04 -1.51175E+04
 -1.02581E+04 -2.18270E+04  7.29700E+03 -2.05911E+04  1.72484E+04 -1.12685E+04  1.61131E+04  4.09260E+03
  6.53414E+03  1.20296E+04 -7.19700E+03  1.07026E+04 -1.40958E+04  2.79248E+03 -1.12317E+04 -8.35829E+03
 -5.50405E+01 -1.35190E+04  6.27185E+03 -9.53866E+03  8.47195E+03 -2.17317E+03  1.80571E+03  5.63451E+03
 -5.68045E+03  1.85443E+03 -4.45393E+03 -4.69105E+03  4.61328E+02 -1.05180E+04  7.95366E+03 -1.14090E+04
  1.29683E+04 -5.00344E+03  1.31320E+04  2.77395E+03  1.15636E+04  1.02325E+04  5.72584E+03  1.56733E+04
 -2.13572E+03  1.68004E+04 -1.02209E+04  1.07704E+04 -1.21138E+04  3.45213E+03 -9.13333E+03 -2.34955E+03
 -5.18950E+03 -3.19630E+03 -9.25852E+02  1.39544E+03 -1.71627E+03  1.68993E+03 -4.35153E+03  3.49138E+03
 -8.04433E+03 -1.41959E+03 -9.00115E+03 -6.98202E+03 -3.54333E+03 -1.16203E+04  3.73638E+03 -9.50623E+03
  7.05355E+03 -4.14957E+03  4.99688E+03  2.09432E+03  2.97671E+01  3.40415E+03 -3.32210E+03 -8.75110E+02
 -3.96902E+03 -4.77441E+03 -1.22392E+03 -8.11070E+03  4.17281E+03 -7.87171E+03  1.07658E+04 -4.24123E+03
  1.26305E+04  6.63248E+02  9.17036E+03  6.62785E+03  1.60895E+03  9.36689E+03 -5.45320E+03  8.53931E+03
 -7.35328E+03  3.21951E+03 -3.61608E+03 -1.18519E+03  1.64770E+03 -2.53636E+03  4.43276E+03 -1.37932E+03
  3.99016E+03  3.17394E+03  1.43017E+03  6.55626E+03 -4.79078E+03  6.18198E+03 -7.87553E+03  1.79763E+03
 -5.12337E+03 -4.23611E+03  1.12349E+02 -6.36320E+03  3.82542E+03 -2.84182E+03  3.53006E+03  1.01598E+03
  7.99673E+01  3.50762E+03 -4.44946E+03  5.47457E+03 -4.83670E+03  2.33363E+03 -4.70924E+03 -1.13403E+03
 -2.82093E+03 -6.11114E+03  5.60938E+02 -7.56711E+03  6.06854E+03 -5.05758E+03  6.45652E+03  1.02519E+03
  5.14890E+03  5.63899E+03  1.33750E+02  6.74865E+03 -5.29632E+03  4.39661E+03 -5.46952E+03 -7.51972E+02
 -5.50257E+03 -5.17269E+03 -1.61668E+03 -5.27959E+03  1.90319E+03 -3.97729E+03  3.67543E+03 -2.96742E+03
  2.30758E+03 -4.05813E+01 -5.82675E+01  1.94156E+03  7.65314E+02 -9.95776E+01  4.49262E+02 -1.91582E+03
  3.99955E+03 -4.70166E+02  5.40509E+03  6.77385E+02  6.06821E+03  3.50405E+03  5.30894E+03  7.32092E+03
 -1.85678E+03  8.63125E+03 -7.67723E+03  6.49889E+03 -1.03721E+04  1.15502E+03 -7.81116E+03 -2.33393E+03
 -4.14719E+03 -6.83009E+03 -2.65506E+02 -5.25192E+03  2.38396E+03 -2.10716E+03  1.73534E+03 -1.88403E+03
  1.15220E+03 -1.15724E+03  2.14918E+03 -1.90234E+03  3.95677E+03 -1.21295E+03  3.14978E+03  7.15246E+02
  4.19999E+03  1.13842E+03  9.74479E+02  3.28270E+03 -1.23111E+03  3.12386E+03 -4.59907E+03  2.41987E+03
 -4.81883E+03 -1.01667E+03 -2.18524E+03 -3.53017E+03  5.82522E+02 -5.09754E+03  3.13826E+03 -5.12152E+03
  5.41777E+03 -3.68513E+03  6.49485E+03 -1.71514E+02  5.32011E+03  4.75215E+03  1.49900E+03  6.23039E+03
 -1.74270E+03  5.22346E+03 -3.36514E+03  1.83363E+03 -1.90045E+03 -9.51067E+02 -8.66962E+02 -5.00344E+02
 -5.91556E+02  2.76359E+02 -1.07194E+03  1.96325E+03 -2.28175E+03  1.10223E+03 -3.85151E+03 -1.14392E+03
 -1.17455E+03 -3.98212E+03  8.53599E+02 -4.42670E+03  2.83380E+03 -4.84953E+03  3.99881E+03 -7.98149E+02
  3.82441E+03  2.22967E+03  1.88268E+03  3.16052E+03 -5.05291E+02  4.21557E+03 -2.55670E+03  2.35971E+03
 -3.81575E+03  4.90566E+02 -3.05868E+03 -3.21228E+03  1.20254E+01 -2.91514E+03  1.64622E+03 -2.17984E+03
  2.76670E+03 -1.40793E+03  2.13259E+03  3.03498E+02  2.18575E+02  1.67932E+03  9.64758E+02  8.25712E+02
  1.17664E+03  4.21022E+02  1.43909E+03  9.97429E+02  8.02637E+02  1.65176E+03  1.36067E+03  1.64106E+03
 -1.21105E+03  2.45819E+03 -2.30996E+03  3.50473E+03 -2.82459E+03  1.36858E+03 -3.87187E+03 -5.76649E+02
 -1.32179E+03 -3.23705E+03  8.30814E+02 -3.96864E+03  1.83089E+03 -2.44161E+03  3.42134E+03 -6.67388E+02
  1.85749E+03  1.35040E+03  5.37957E+02  2.34882E+03 -4.37890E+02  1.25013E+03 -1.43227E+03 -3.63715E+01
 -5.35266E+02 -1.03266E+03  9.13119E+02 -1.20181E+03  1.10228E+03 -8.46577E+02  1.29508E+03  5.04758E+02
  5.64574E+02  3.67849E+02  3.35334E+02 -3.33686E+02 -6.25528E+02  8.11109E+02  1.85791E+03 -5.48376E+02
 -6.50546E+02  1.97812E+02  1.35063E+03  5.56146E+02  5.72275E+02  2.27272E+03 -5.04997E+02  2.35137E+03
 -1.42403E+03  7.79224E+02 -1.72932E+03 -6.66432E+01 -1.89199E+03 -6.59199E+02 -4.12493E+02 -9.70460E+02
 -4.89482E+01 -1.07267E+03  1.10073E+03 -8.00416E+02  6.73776E+02  1.07233E+03 -3.34626E+02  1.40116E+03
 -1.48686E+03  7.07139E+01 -1.31338E+03 -1.09483E+03 -5.13463E+02 -1.72998E+03 -4.24592E+02 -1.35412E+03
  4.16081E+02 -5.89424E+02  8.12305E+02  3.22186E+02  1.57934E+03 -4.31631E+01  6.86337E+02  9.00863E+02
  4.42451E+01  3.50231E+02 -1.05821E+03 -7.77482E+02  2.93766E+02 -6.27772E+02  1.22000E+03 -7.29378E+02
  1.35055E+03  8.61361E+01  2.70868E+03  2.62720E+02  6.83144E+02  1.38373E+03 -8.08005E+01  1.40427E+03
 -1.19649E+03  4.47105E+02 -9.84295E+02 -2.88712E+02 -8.33402E+02 -8.36314E+02  4.75128E+02 -6.97182E+01
  1.89847E+03 -8.66542E+02  7.64308E+02  7.69699E+02 -7.25367E+02  9.00080E+02  4.05836E+02  1.29827E+03
 -7.28354E+02  1.15086E+03 -6.17266E+02  1.45429E+02 -1.74437E+02  7.03936E+02 -3.35113E+02  5.59379E+02
 -5.89512E+02  9.31052E+02 -1.72943E+03 -2.17353E+02 -1.23267E+03  1.99883E+02 -2.03745E+03 -3.42718E+02
 -9.29075E+02 -1.98557E+03  5.53440E+02 -2.68878E+03  3.91181E+02 -2.24901E+03  2.49822E+03 -1.30730E+03
  1.80615E+03 -2.72488E+02  6.46223E+02  1.34763E+03 -5.75483E+02  1.03354E+03 -8.02460E+02  1.13649E+03
 -1.06500E+03  5.23063E+02  1.50304E+02 -6.01070E+01 -4.47558E+02  2.92781E+02 -8.88460E+02 -4.42138E+02
 -8.20571E+02  9.65993E+01 -1.15327E+03 -7.93568E+00  4.09694E+02 -5.21230E+01 -7.15593E+02 -4.34284E+02
  1.08883E+03 -8.44396E+02 -2.79338E+01  2.67714E+02  1.54278E+03  4.24997E+02 -4.34108E+02  1.17739E+03
 -3.94962E+02  1.76458E+03 -1.56796E+03  7.64191E+02 -1.10806E+03  4.53437E+02 -1.19931E+03 -7.70256E+02
 -2.23153E+01 -8.80048E+02  2.46672E+02 -1.09944E+03  7.65591E+02 -2.32204E+02  1.11677E+02  4.78794E+02
  6.46974E+02  7.24749E+02  3.02798E+02 -3.68394E+02  1.12959E+02 -1.99518E+02 -2.19154E+02 -7.48414E+01
 -1.78506E+02  4.42436E+02  1.88765E+02  4.72330E+02  8.80282E+01  5.95309E+02  9.58909E+02  1.75138E+02
 -8.45648E+02  9.99889E+02  2.75770E+02  3.44255E+02 -6.38227E+02  3.40055E+01  8.48731E+01 -1.01102E+03
  4.16951E+02 -8.34303E+02  3.90231E+02 -9.65731E+01  1.38045E+03 -4.21285E+02  8.80090E+02  9.67737E+02
  4.40053E+02  3.45097E+02  5.26683E+01  6.71461E+02  1.32959E+01  7.74460E+02 -2.30436E+02  2.11504E+02
 -1.76478E+02  1.18075E+02 -1.13132E+03  7.18881E+02 -4.14533E+02  2.89910E+02 -8.60368E+02 -3.71772E+02
 -1.01441E+03  1.20978E+03 -4.14400E+02 -9.11295E+02  5.71213E+02 -1.23941E+03  7.56335E+02 -5.59302E+02
  7.58951E+02 -2.41035E+02 -7.68136E+02 -2.51023E+02 -3.02979E+02  2.54678E+02 -4.06678E+01  7.08471E+02
