 $NMID ID='MM_0lb_SNR400_18hz_g55_41.RAW', FMTDAT='(8E13.5)'
 TRAMP=1., VOLUME=1. $END
  3.10036E+05 -1.34092E+02  3.37865E+05  2.50501E+05  8.49887E+04  3.38082E+05 -1.32346E+05  2.50766E+05
 -1.90335E+05  8.28790E+04 -1.11601E+05 -3.31546E+04  1.26580E+03 -4.95625E+04  5.35914E+04  5.76415E+01
  3.49789E+04  5.29082E+04 -1.71351E+04  7.50023E+04 -6.04464E+04  6.34341E+04 -8.39855E+04  3.16874E+04
 -8.05489E+04 -1.06831E+04 -5.66975E+04 -5.05545E+04 -1.47905E+04 -6.91590E+04  2.73861E+04 -4.51806E+04
  3.97561E+04  4.09507E+03  1.61794E+04  4.74326E+04 -3.44836E+04  4.62705E+04 -6.62765E+04 -3.82068E+02
 -5.23723E+04 -5.65135E+04 -6.59923E+03 -7.63044E+04  3.34807E+04 -5.37553E+04  4.70610E+04 -1.70244E+04
  4.24646E+04  1.08412E+04  3.12529E+04  2.51685E+04  1.51916E+04  2.84896E+04 -5.29394E+03  2.67604E+04
 -2.17015E+04  1.26893E+04 -1.89511E+04 -4.72779E+03  4.62090E+03 -7.18240E+03  2.20442E+04  1.12907E+04
  6.93592E+03  3.36629E+04 -3.12199E+04  3.48283E+04 -6.18499E+04  2.45685E+03 -5.60532E+04 -4.24376E+04
 -1.24052E+04 -6.19418E+04  3.91829E+04 -4.43581E+04  5.68511E+04 -2.44853E+03  3.25774E+04  3.13795E+04
 -6.21809E+03  3.44173E+04 -2.93465E+04  1.47168E+04 -2.87297E+04 -4.73750E+03 -1.50626E+04 -1.09597E+04
 -7.76736E+03 -1.20703E+04 -7.92312E+02 -1.71867E+04  7.55524E+03 -2.29483E+04  1.53048E+04 -1.35370E+04
  1.18457E+04  4.73292E+03 -7.01664E+03  1.32758E+04 -2.01089E+04 -3.32127E+03 -7.69061E+03 -3.18248E+04
  2.17604E+04 -4.16857E+04  4.63196E+04 -1.91695E+04  4.30301E+04  1.87502E+04  1.51432E+04  4.29238E+04
 -1.53368E+04  3.19757E+04 -2.38151E+04  1.75921E+03 -9.27334E+03 -2.74875E+04  2.08070E+04 -3.22561E+04
  3.93728E+04 -8.31193E+03  3.23938E+04  2.30129E+04  1.62294E+04  4.42513E+04 -7.77994E+03  4.76087E+04
 -2.91401E+04  3.12457E+04 -3.92001E+04  8.99162E+03 -3.99297E+04 -1.58186E+04 -2.23266E+04 -3.57520E+04
  6.86997E+03 -3.49382E+04  3.01045E+04 -1.35990E+04  2.79277E+04  1.13127E+04  3.47686E+03  1.80266E+04
 -1.33037E+04  7.85168E+03 -9.39613E+03 -7.69328E+03  6.02339E+03 -1.02795E+04  1.70571E+04  6.31283E+03
  1.29452E+04  2.17021E+04 -6.48088E+03  2.39062E+04 -2.14557E+04  1.03608E+04 -2.63195E+04 -5.93913E+03
 -1.74319E+04 -1.66198E+04 -6.82422E+03 -1.73178E+04  4.12916E+03 -1.65080E+04  1.41239E+04 -1.53240E+04
  2.30806E+04 -1.21788E+04  2.93962E+04  1.56401E+03  2.22326E+04  1.77700E+04  4.22148E+03  3.37246E+04
 -1.65315E+04  2.83481E+04 -2.63123E+04  9.89012E+03 -2.02398E+04 -1.07025E+04 -3.77139E+03 -1.38650E+04
  2.13113E+03 -3.25672E+03 -3.34099E+03  6.02738E+03 -1.41005E+04  5.26431E+03 -1.45448E+04 -5.50745E+03
 -9.41761E+03 -1.65998E+04  5.23560E+03 -2.05506E+04  1.35182E+04 -1.44786E+04  1.61290E+04 -1.85051E+03
  9.87087E+03  1.17067E+04 -9.54397E+02  1.70866E+04 -1.06888E+04  8.94181E+03 -1.69472E+04 -3.76833E+03
 -1.22978E+04 -1.54396E+04 -1.21215E+03 -2.05232E+04  8.90473E+03 -1.69664E+04  1.69524E+04 -7.50411E+03
  1.51704E+04  1.72674E+02  1.12444E+04  4.17235E+03  5.50188E+03  1.01871E+03  8.74038E+03 -1.10139E+03
  1.48392E+04  2.65108E+03  1.55068E+04  1.32500E+04  1.08254E+04  2.61508E+04 -2.84788E+03  2.85645E+04
 -1.72470E+04  2.30126E+04 -2.69670E+04  1.09232E+04 -2.70127E+04 -1.92518E+03 -2.31591E+04 -1.61608E+04
 -1.06845E+04 -2.21068E+04  8.09442E+03 -2.08673E+04  1.80343E+04 -1.17168E+04  1.65704E+04  4.42660E+03
  7.08823E+03  1.19466E+04 -7.44502E+03  1.10651E+04 -1.42474E+04  2.06333E+03 -1.09645E+04 -8.76117E+03
 -2.72742E+02 -1.32976E+04  6.30119E+03 -9.68684E+03  8.31887E+03 -1.30523E+03  1.04326E+03  5.21940E+03
 -6.39173E+03  1.53551E+03 -3.87341E+03 -4.79796E+03  8.42525E+02 -1.10668E+04  8.50305E+03 -1.10493E+04
  1.31861E+04 -5.36891E+03  1.30841E+04  2.79023E+03  1.17741E+04  1.03642E+04  5.45254E+03  1.54329E+04
 -1.79827E+03  1.71438E+04 -1.11168E+04  1.08032E+04 -1.29953E+04  2.54124E+03 -8.86001E+03 -2.10534E+03
 -4.66922E+03 -3.39989E+03 -5.79994E+02  2.06356E+03 -2.11317E+03  1.75745E+03 -4.01263E+03  3.88663E+03
 -8.61319E+03 -8.23568E+02 -9.19698E+03 -7.55561E+03 -3.94245E+03 -1.29503E+04  3.71178E+03 -8.99046E+03
  7.04282E+03 -4.11021E+03  5.73976E+03  2.21023E+03  2.32982E+02  2.68600E+03 -3.99667E+03 -4.63764E+01
 -3.77754E+03 -6.00162E+03 -7.08427E+02 -8.15291E+03  3.97927E+03 -8.70145E+03  1.07268E+04 -4.28478E+03
  1.30858E+04  5.41360E+02  9.16522E+03  7.01489E+03  1.97445E+03  9.42917E+03 -5.58640E+03  8.99697E+03
 -7.51168E+03  2.78469E+03 -3.70028E+03 -1.60165E+03  1.40188E+03 -2.24602E+03  5.37736E+03 -1.08931E+03
  3.89871E+03  3.70064E+03  8.39701E+02  7.20492E+03 -4.59208E+03  6.71044E+03 -8.33255E+03  1.98677E+03
 -5.02219E+03 -3.71340E+03  1.34760E+02 -7.40842E+03  4.08863E+03 -3.56323E+03  4.31803E+03  1.05164E+03
  1.02148E+03  3.52909E+03 -4.38765E+03  5.27690E+03 -5.47884E+03  2.52566E+03 -5.64651E+03 -1.83740E+03
 -3.07635E+03 -6.88713E+03  9.12851E+02 -7.34433E+03  6.39611E+03 -5.56942E+03  7.14305E+03  8.86302E+02
  4.86386E+03  6.37055E+03 -2.45372E+02  7.67951E+03 -5.66238E+03  5.04689E+03 -5.42174E+03 -1.33637E+02
 -6.18587E+03 -5.58487E+03 -1.43042E+03 -5.43949E+03  2.47121E+03 -4.90915E+03  3.09556E+03 -3.05067E+03
  3.00993E+03 -3.94681E+02  1.80139E+02  8.21415E+02  2.46204E+02  1.61306E+02  2.50795E+02 -2.37089E+03
  4.56735E+03 -5.74109E+02  5.91866E+03  1.15907E+03  6.15451E+03  3.74854E+03  5.99479E+03  7.99619E+03
 -1.42573E+03  9.26895E+03 -9.29760E+03  7.71191E+03 -1.05693E+04  8.83509E+02 -8.72545E+03 -2.61427E+03
 -4.36289E+03 -6.95374E+03 -1.44899E+03 -6.19544E+03  2.52759E+03 -2.55023E+03  1.48573E+03 -2.12606E+03
  1.96040E+03 -1.47148E+03  2.41699E+03 -2.55113E+03  3.84669E+03 -1.02986E+03  3.91979E+03  4.07949E+02
  4.93047E+03  1.01426E+03  1.09788E+03  3.88255E+03 -1.70676E+03  3.31710E+03 -4.69153E+03  2.84196E+03
 -5.37596E+03 -1.16233E+03 -2.01595E+03 -3.83807E+03  3.85506E+02 -5.84336E+03  3.65100E+03 -5.76632E+03
  5.77606E+03 -4.00245E+03  7.35098E+03  5.67213E+01  5.41970E+03  4.60158E+03  7.54649E+02  6.83016E+03
 -2.69608E+03  6.51573E+03 -4.21854E+03  2.13047E+03 -2.39322E+03 -1.24800E+03 -5.48978E+02 -4.63792E+02
 -7.42475E+02  2.24534E+02 -1.26551E+03  2.65647E+03 -2.59575E+03  1.22947E+03 -4.20968E+03  1.43598E+02
 -1.97899E+03 -4.70871E+03  8.26424E+02 -5.17653E+03  3.42730E+03 -5.02120E+03  4.26740E+03 -1.34997E+03
  4.28676E+03  2.47408E+03  2.04878E+03  3.39374E+03 -1.08814E+03  5.13689E+03 -2.99113E+03  2.57668E+03
 -4.45604E+03  8.64150E+02 -3.46964E+03 -2.85759E+03 -5.68938E+02 -4.21529E+03  2.21953E+03 -2.60262E+03
  3.79084E+03 -1.11035E+03  2.01398E+03  7.22860E+02  7.90071E+02  2.39136E+03  1.27868E+03  5.51058E+02
  1.92592E+03  3.59525E+02  1.54816E+03  1.12887E+03  1.04235E+03  2.14851E+03  1.60987E+03  2.14682E+03
 -1.17263E+03  2.59903E+03 -2.71313E+03  4.08513E+03 -3.55179E+03  1.39541E+03 -4.58783E+03 -2.55653E+02
 -2.28723E+03 -4.04312E+03  9.64234E+02 -4.93320E+03  2.27007E+03 -2.59609E+03  3.85245E+03 -1.42148E+03
  2.29617E+03  1.82765E+03  5.99581E+02  2.13629E+03 -7.99597E+02  1.53709E+03 -1.02801E+03 -1.40449E+02
 -3.40055E+02 -1.55811E+03  1.12244E+03 -1.32820E+03  1.59961E+03 -6.03309E+02  1.65454E+03  3.65810E+02
  1.00803E+03  9.85236E+02  7.52349E+02 -4.35338E+02 -1.12086E+02  1.17779E+03  9.40368E+02  2.22397E+02
  3.54302E+02 -8.52891E+01  1.97779E+03  4.36491E+02  1.84327E+02  2.55259E+03 -3.58018E+02  3.27224E+03
 -1.59054E+03  1.52843E+03 -2.32777E+03  6.71767E+02 -2.78277E+03 -2.55305E+02 -3.01689E+02 -1.12139E+03
  6.32035E+02 -5.39629E+02  6.27417E+02 -5.90120E+02  4.49006E+02  9.44844E+02 -4.92751E+02  1.15295E+03
 -1.68564E+03  1.23580E+03 -1.28635E+03 -1.52136E+03 -3.00726E+02 -2.28400E+03  2.79828E+02 -1.29371E+03
  5.34967E+02 -8.40970E+02  8.90269E+02  5.12264E+02  1.32862E+03  3.21561E+02  7.34125E+02  7.45496E+02
 -2.99723E+02 -5.01200E+01 -5.97921E+02 -5.28453E+02  4.16948E+02 -9.89647E+02  2.10108E+03 -1.50885E+03
  2.02098E+03 -1.16155E+01  3.37428E+03  1.08684E+03  1.15616E+03  1.41432E+03 -6.02659E+02  2.30415E+03
 -1.22949E+03  3.23206E+02 -1.81203E+03  1.67386E+01 -1.26956E+03 -1.45315E+03  8.29674E+02 -7.04484E+02
  1.19154E+03 -1.11472E+03  6.35857E+02  2.27872E+02  5.82299E+01  1.13363E+03  4.77542E+02  8.36804E+02
 -5.96694E+02  1.39638E+03 -7.61841E+02  4.41101E+01 -7.47327E+01  3.52155E+02 -1.06055E+03  9.16899E+02
 -4.33294E+02  6.81026E+02 -1.61894E+03  6.19816E+02 -1.69839E+03  1.09077E+01 -2.45043E+03 -8.96049E+02
 -1.14144E+03 -2.40621E+03  3.03883E+02 -2.91772E+03  1.38063E+03 -2.57568E+03  2.99310E+03 -8.61198E+02
  3.12387E+03  9.47542E+01  1.26151E+03  1.54095E+03 -6.52590E+02  1.44063E+03 -5.11139E+02  1.49080E+03
 -1.09952E+03  9.08899E+02 -1.18314E+03 -6.32319E+02 -6.17904E+02  2.96950E+02 -9.07833E+02 -5.41527E+01
 -9.67615E+02  1.64190E+02 -1.53599E+02 -4.26434E+01  5.14619E+02 -1.07982E+03 -2.74463E+02 -1.45816E+03
  1.52680E+03 -4.16899E+02  1.65581E+02 -3.42578E+02  8.33669E+02  1.52811E+03 -5.02009E+02  1.44691E+03
 -1.40159E+03  2.16490E+03 -1.33983E+03  1.80816E+03 -1.99831E+03 -2.11296E+02 -1.74052E+03 -1.46146E+03
 -1.11005E+03 -1.17127E+03  6.12028E+02 -1.26683E+03  9.03521E+02 -1.08839E+03  9.17453E+02 -6.64940E+01
  6.27166E+02  1.94867E+02  3.68502E+02  2.30758E+02 -3.72963E+02 -5.01072E+02 -2.92045E+01  2.18913E+02
  5.40480E+02  8.75866E+01  1.76651E+02  2.53170E+02  2.86776E+02  5.47664E+02  9.31664E+02  2.56832E+02
 -5.41922E+02  8.62547E+02 -5.66837E+02 -3.89444E+02 -9.11554E+02 -6.62031E+02 -1.59626E+01 -7.37848E+02
 -2.48349E+02 -4.64922E+02  5.04028E+02 -4.73181E+02  9.23290E+02 -5.31607E+02  3.75810E+02  1.21216E+03
  6.65844E+02  3.18403E+02  4.35182E+01  7.24795E+02 -5.29487E+02  2.10307E+02 -4.29037E+02  1.64946E+02
 -6.64931E+02  2.03308E+02 -5.44333E+02  2.09581E+02 -1.38614E+02  7.53157E+01 -1.34559E+03  1.34119E+02
 -1.21044E+03  9.89486E+01  1.00372E+02 -6.40970E+02  2.63534E+02 -1.83633E+03  8.04902E+02 -6.42527E+02
  5.25326E+02  3.92925E+02 -3.95724E+02  5.08074E+02 -1.54909E+02  1.20611E+03 -2.04916E+01  5.71262E+02
