 $NMID ID='MM_0lb_SNR400_20hz_g45_66.RAW', FMTDAT='(8E13.5)'
 TRAMP=1., VOLUME=1. $END
  3.09663E+05  6.36904E+02  3.37442E+05  2.50570E+05  8.43852E+04  3.37167E+05 -1.31784E+05  2.49966E+05
 -1.89519E+05  8.21146E+04 -1.10917E+05 -3.26193E+04  1.56043E+03 -5.00430E+04  5.40528E+04  1.86228E+02
  3.52168E+04  5.24685E+04 -1.68080E+04  7.46677E+04 -5.99020E+04  6.23796E+04 -8.22084E+04  3.12095E+04
 -7.90240E+04 -1.05177E+04 -5.58898E+04 -4.97666E+04 -1.48173E+04 -6.72558E+04  2.65124E+04 -4.41511E+04
  3.89449E+04  3.70222E+03  1.48397E+04  4.68733E+04 -3.35168E+04  4.60164E+04 -6.48281E+04 -3.87959E+02
 -5.10627E+04 -5.56130E+04 -6.40819E+03 -7.47504E+04  3.29211E+04 -5.25033E+04  4.52920E+04 -1.61371E+04
  4.08268E+04  1.10047E+04  2.97644E+04  2.44337E+04  1.54750E+04  2.79302E+04 -4.48015E+03  2.65389E+04
 -2.15636E+04  1.29111E+04 -1.92807E+04 -4.14228E+03  4.16395E+03 -7.44169E+03  2.09150E+04  1.00650E+04
  7.06561E+03  3.27603E+04 -3.00149E+04  3.32976E+04 -6.00006E+04  1.81129E+03 -5.50541E+04 -4.05179E+04
 -1.26034E+04 -6.01093E+04  3.75021E+04 -4.20991E+04  5.42924E+04 -1.37109E+03  3.09125E+04  2.93692E+04
 -7.07060E+03  3.22224E+04 -2.77668E+04  1.27860E+04 -2.63146E+04 -5.44044E+03 -1.37341E+04 -9.20340E+03
 -7.02687E+03 -1.04907E+04 -1.57855E+03 -1.60730E+04  6.63425E+03 -2.20436E+04  1.50935E+04 -1.41061E+04
  1.26441E+04  3.84538E+03 -5.74867E+03  1.34084E+04 -1.84685E+04 -1.95899E+03 -7.77842E+03 -2.94221E+04
  1.98181E+04 -3.97701E+04  4.35835E+04 -1.79782E+04  4.06200E+04  1.78977E+04  1.39751E+04  4.06210E+04
 -1.47996E+04  3.01866E+04 -2.29258E+04  8.08963E+02 -7.52790E+03 -2.59771E+04  2.06857E+04 -3.05203E+04
  3.72442E+04 -6.64344E+03  3.00086E+04  2.24569E+04  1.45398E+04  4.13257E+04 -7.23860E+03  4.36522E+04
 -2.72022E+04  2.88967E+04 -3.55267E+04  7.17618E+03 -3.68681E+04 -1.47427E+04 -2.03081E+04 -3.28634E+04
  7.19531E+03 -3.27635E+04  2.84014E+04 -1.21581E+04  2.59820E+04  1.05368E+04  2.24079E+03  1.71850E+04
 -1.36515E+04  6.94723E+03 -9.22757E+03 -7.40263E+03  6.02928E+03 -9.88328E+03  1.72724E+04  6.62709E+03
  1.20287E+04  2.16887E+04 -7.19926E+03  2.25697E+04 -2.14952E+04  8.24099E+03 -2.43683E+04 -7.00548E+03
 -1.56210E+04 -1.60366E+04 -4.69382E+03 -1.55461E+04  3.81071E+03 -1.35882E+04  1.11743E+04 -1.28897E+04
  1.95962E+04 -1.12836E+04  2.65621E+04  2.61432E+02  2.02953E+04  1.47774E+04  3.79285E+03  3.10961E+04
 -1.53228E+04  2.63862E+04 -2.52186E+04  9.22471E+03 -1.93159E+04 -1.04390E+04 -3.61167E+03 -1.41393E+04
  2.83020E+03 -4.59517E+03 -1.57450E+03  4.58557E+03 -1.20689E+04  5.61422E+03 -1.23194E+04 -4.60332E+03
 -8.27634E+03 -1.44600E+04  4.35557E+03 -1.80729E+04  1.15458E+04 -1.32982E+04  1.34137E+04 -1.29312E+03
  8.21530E+03  9.69960E+03 -1.00695E+03  1.45275E+04 -9.12920E+03  8.24809E+03 -1.43707E+04 -3.25973E+03
 -1.06879E+04 -1.38242E+04 -1.25557E+03 -1.82024E+04  7.85010E+03 -1.41270E+04  1.48485E+04 -6.30999E+03
  1.38583E+04  9.93419E+02  9.49558E+03  3.32315E+03  5.05825E+03  3.23420E+02  6.43186E+03 -1.37659E+03
  1.28847E+04  2.89598E+03  1.34844E+04  1.19435E+04  7.77664E+03  2.34560E+04 -3.18158E+03  2.37924E+04
 -1.43484E+04  1.85519E+04 -2.23047E+04  8.54461E+03 -2.24166E+04 -1.71636E+03 -1.93756E+04 -1.21187E+04
 -9.61264E+03 -1.83703E+04  6.02065E+03 -1.73725E+04  1.54352E+04 -1.07278E+04  1.41273E+04  2.73323E+03
  6.15430E+03  1.02305E+04 -6.43661E+03  9.54490E+03 -1.23733E+04  2.33500E+03 -9.39303E+03 -7.10349E+03
  1.90255E+02 -1.19481E+04  5.68897E+03 -8.88196E+03  7.32125E+03 -9.38589E+02  7.81713E+02  5.04040E+03
 -5.25641E+03  9.63977E+02 -3.01341E+03 -4.34548E+03  8.39136E+02 -9.18868E+03  7.27843E+03 -8.97445E+03
  1.04246E+04 -4.17548E+03  9.80969E+03  2.25332E+03  8.93552E+03  8.46758E+03  4.49783E+03  1.20434E+04
 -1.05299E+03  1.38730E+04 -8.39040E+03  8.90581E+03 -9.73965E+03  2.76410E+03 -7.56654E+03 -1.32258E+03
 -4.60196E+03 -2.40990E+03 -1.19621E+03  1.91075E+03 -1.80146E+03  1.73519E+03 -3.32450E+03  3.46590E+03
 -8.01952E+03 -3.18221E+02 -7.65962E+03 -6.82164E+03 -3.42140E+03 -1.11026E+04  2.92190E+03 -7.91534E+03
  6.13460E+03 -3.84005E+03  4.36955E+03  1.51958E+03  8.99670E+02  2.46761E+03 -3.13906E+03 -1.26129E+02
 -2.63285E+03 -4.53287E+03 -8.14912E+02 -6.07791E+03  2.97241E+03 -6.80057E+03  9.20251E+03 -3.39951E+03
  9.85110E+03  2.88627E+02  7.95699E+03  5.43389E+03  1.13222E+03  7.17302E+03 -4.75732E+03  7.30070E+03
 -6.15737E+03  2.82453E+03 -3.38624E+03 -1.08925E+03  1.08760E+03 -1.44324E+03  3.96565E+03 -1.04835E+03
  3.76971E+03  2.86593E+03  7.19661E+02  5.70157E+03 -3.72880E+03  5.42033E+03 -7.37817E+03  1.77894E+03
 -4.25382E+03 -3.42665E+03  1.59049E+02 -6.02005E+03  2.21273E+03 -3.12515E+03  2.80366E+03  6.50071E+02
  3.12239E+02  2.43842E+03 -3.69759E+03  3.76236E+03 -4.05450E+03  2.45481E+03 -3.78199E+03 -1.01113E+03
 -2.44606E+03 -4.13163E+03  8.62494E+02 -5.44345E+03  5.48413E+03 -3.85969E+03  5.38677E+03  6.88439E+02
  3.96956E+03  4.72177E+03  5.49835E+02  6.65566E+03 -4.64820E+03  3.58782E+03 -3.95565E+03 -4.21593E+02
 -5.06716E+03 -5.04491E+03 -1.49295E+03 -4.32936E+03  1.86875E+03 -4.18854E+03  2.18039E+03 -2.91438E+03
  2.36049E+03 -2.34658E+01  8.64471E+01  1.39481E+03  1.09644E+03 -1.10284E+02  9.22031E+01 -1.21659E+03
  3.20480E+03  3.58334E+02  3.73988E+03  4.48456E+02  4.31870E+03  2.31875E+03  4.50378E+03  5.60746E+03
 -1.25013E+03  6.76689E+03 -6.51605E+03  5.50649E+03 -8.33720E+03  9.20404E+02 -6.64062E+03 -1.99516E+03
 -3.44303E+03 -5.47921E+03 -2.54645E+02 -4.23622E+03  1.40850E+03 -1.57607E+03  1.35164E+03 -2.45017E+03
  9.75718E+02 -1.57154E+03  2.56401E+03 -2.32865E+03  3.16805E+03 -9.91455E+02  3.25820E+03  1.47146E+02
  3.93244E+03  7.08257E+02  5.94484E+02  2.79423E+03 -1.40041E+03  1.68894E+03 -3.46317E+03  1.98496E+03
 -3.59580E+03 -1.19945E+03 -1.28342E+03 -3.00551E+03  4.82087E+02 -3.68914E+03  2.95750E+03 -4.17262E+03
  4.20688E+03 -2.57548E+03  5.39358E+03 -5.69569E+02  4.29374E+03  3.41438E+03  9.68936E+02  5.22466E+03
 -1.74081E+03  5.27622E+03 -2.82086E+03  1.89456E+03 -1.65319E+03 -1.32033E+03 -2.82647E+02 -1.31423E+02
 -3.09207E+02  7.62145E+02 -1.26147E+03  1.71041E+03 -1.97582E+03  8.99140E+02 -3.35582E+03 -8.21620E+01
 -8.72185E+02 -3.75086E+03  5.69303E+02 -3.75008E+03  2.19773E+03 -3.36810E+03  2.61129E+03 -9.83653E+02
  3.27177E+03  2.04159E+03  1.36807E+03  1.61171E+03 -6.19024E+02  3.58840E+03 -1.35497E+03  1.79053E+03
 -2.76924E+03  4.81237E+02 -2.80502E+03 -1.08597E+03  3.11908E+02 -2.59388E+03  1.43937E+03 -1.69673E+03
  1.87684E+03 -2.08319E+03  1.30634E+03 -3.87470E+02 -6.03819E+01  1.50409E+03  1.59070E+03  7.27935E+02
  1.48755E+03  4.44808E+02  1.02012E+03  1.05211E+03  8.31792E+02  2.02546E+03  1.09917E+03  1.11313E+03
 -8.02188E+02  2.40364E+03 -1.79986E+03  4.21748E+03 -1.66881E+03  1.04610E+03 -2.78462E+03  2.37201E+02
 -1.11718E+03 -2.99983E+03  6.53919E+02 -4.08413E+03  1.30447E+03 -2.28829E+03  2.58436E+03 -6.30035E+02
  1.80421E+03  1.46378E+03  5.69291E+02  2.02068E+03 -5.96456E+02  8.13764E+02 -8.62350E+02 -1.11858E+02
 -8.03511E+02 -1.45208E+03  1.62837E+03 -1.33196E+03  1.31590E+03 -8.09530E+02  4.60963E+02  2.45268E+02
  7.67631E+02 -1.04384E+02  6.19362E+02 -1.94474E+02 -5.16723E+02  4.40844E+02  1.31483E+03 -1.58806E+02
 -1.74181E+01 -3.12703E+02  1.38662E+03  8.23716E+02  1.21809E+02  2.01612E+03  1.66509E+02  2.15715E+03
 -1.13860E+03  7.40339E+02 -1.83234E+03  2.78668E+02 -1.43450E+03 -3.95270E+02  3.28502E+02 -5.86830E+02
  4.51207E+02 -9.66073E+02  8.38061E+02 -9.15626E+02  5.51859E+02  1.09657E+03 -7.64191E+02  8.95182E+02
 -1.07643E+03  4.63553E+02 -4.72985E+02 -9.97216E+02 -2.13622E+01 -2.30353E+03  3.21148E+02 -1.72966E+03
  3.79082E+02  1.76030E+02  4.05109E+02 -8.62508E+00  1.19906E+03 -3.41478E+02  9.33805E+01  7.79239E+02
 -6.10454E+02 -4.27620E+01 -9.81503E+02  1.31435E+02  6.97821E+02 -6.49121E+02  1.33056E+03 -4.30366E+02
  7.08413E+02 -1.65248E+01  2.44461E+03  1.08165E+02  9.48457E+02  7.35751E+02 -2.48102E+01  1.82292E+03
 -6.72869E+02 -3.38083E+02 -1.11227E+03 -5.81247E+01 -8.53823E+02 -1.05672E+03  2.02252E+02 -3.15676E+02
  1.45899E+03 -7.74177E+02  5.03247E+02  8.04472E+02  6.37767E+02  5.62653E+02  1.05053E+03  9.02620E+02
 -1.46557E+02  1.22729E+03 -6.82711E+02  4.12930E+02 -5.88234E+01  2.19210E+02 -3.68869E+02  5.05718E+02
 -1.46008E+02  9.21387E+02 -1.44348E+03  6.57490E+01 -1.02704E+03  5.84133E+02 -1.88441E+03 -7.47725E+02
 -8.25858E+02 -1.88264E+03 -3.01381E+02 -2.47500E+03  4.90014E+02 -1.56745E+03  1.80976E+03 -9.36119E+02
  1.78558E+03 -5.60508E+02  8.38474E+02  1.33906E+03 -5.21774E+02  3.61147E+02 -6.39958E+01  1.02515E+03
 -7.97296E+01  9.02500E+02 -3.67651E+02  1.84249E+02 -4.99099E+02  2.96352E+02 -6.52064E+02  3.07235E+02
 -1.17151E+03 -5.25945E+02 -1.07052E+03  1.69909E+02  4.38822E+02 -5.50597E+02 -6.02745E+02 -6.73454E+02
  6.11474E+02 -7.70517E+02  1.30709E+02  1.41482E+02  8.25256E+02  9.36739E+02 -2.10791E+02  7.45964E+02
 -8.78312E+02  2.39017E+03 -7.80279E+02  1.15852E+03 -1.09682E+03  3.91293E+02 -9.18631E+02 -6.16545E+02
 -1.03412E+03 -5.47548E+02  6.01279E+01 -6.40874E+02  6.98792E+02 -6.53281E+02  7.43276E+02  2.96569E+02
  9.64488E+01  2.31352E+02  2.36776E+02  9.84519E+01 -6.42712E+02 -7.77930E+02 -3.24585E+02 -2.91989E+02
  8.83244E+02  1.98029E+02  4.45133E+02  5.00469E+02  5.41770E+02  2.42669E+02  3.63911E+02 -2.51989E+02
 -8.08834E+02  4.09430E+02 -1.77609E+02 -4.07326E+02 -7.26725E+02 -7.51741E+02 -1.44982E+02 -9.91101E+02
  3.83188E+02  1.53702E+02  3.17710E+01  3.77429E+02  4.06949E+02 -9.87932E+02  5.80436E+01  2.63302E+02
  6.32058E+02  2.22158E+01 -2.39062E+02  5.86844E+02 -1.52462E+02  2.20232E+02  1.50720E+02  2.50747E+02
  3.49271E+02 -4.14012E+02 -3.50831E+02  3.84421E+02 -9.33061E+02  5.75169E+02 -7.24740E+02 -5.49655E+02
 -9.40184E+02  6.06149E+02 -4.09357E+02 -3.23402E+02  6.81798E+02 -1.41197E+03 -2.59184E+02 -8.19506E+02
  2.02833E+02 -2.56073E+01 -6.85968E+02 -1.93785E+02 -4.31725E+02  7.54104E+02 -3.05045E+02  4.57905E+02
